None,ticker,dimension,calendardate,datekey,reportperiod,lastupdated,accoci,assets,assetsavg,assetsc,assetsnc,assetturnover,bvps,capex,cashneq,cashnequsd,cor,consolinc,currentratio,de,debt,debtc,debtnc,debtusd,deferredrev,depamor,deposits,divyield,dps,ebit,ebitda,ebitdamargin,ebitdausd,ebitusd,ebt,eps,epsdil,epsusd,equity,equityavg,equityusd,ev,evebit,evebitda,fcf,fcfps,fxusd,gp,grossmargin,intangibles,intexp,invcap,invcapavg,inventory,investments,investmentsc,investmentsnc,liabilities,liabilitiesc,liabilitiesnc,marketcap,ncf,ncfbus,ncfcommon,ncfdebt,ncfdiv,ncff,ncfi,ncfinv,ncfo,ncfx,netinc,netinccmn,netinccmnusd,netincdis,netincnci,netmargin,opex,opinc,payables,payoutratio,pb,pe,pe1,ppnenet,prefdivis,price,ps,ps1,receivables,retearn,revenue,revenueusd,rnd,roa,roe,roic,ros,sbcomp,sgna,sharefactor,sharesbas,shareswa,shareswadil,sps,tangibles,taxassets,taxexp,taxliabilities,tbvps,workingcapital
0,EOG,ARY,2020-12-31,2021-02-25,2020-12-31,2021-08-04,-12328000,35804601000,35933593500.0,5862168000,29942433000,0.307,35.067,-3272772000.0,3328928000,3328928000,4968386000.0,-604572000.0,1.694,0.764,6111494000,1076143000.0,5035351000.0,6111494000,0,3400353000.0,0,0.021,1.5,-533788000.0,2866565000.0,0.26,2866565000.0,-533788000.0,-739054000.0,-1.04,-1.04,-1.04,20301887000,20577111250.0,20301887000,43976311983,-82.0,15.341,1735011000.0,2.997,1.0,6063662000.0,0.55,0,205266000.0,35127063000,35671505750.0,629401000,0,0,0,15502714000,3460104000.0,12042610000.0,41193745983,1300956000.0,0.0,39000.0,461759000.0,-820823000.0,-359025000.0,-3347506000.0,0.0,5007783000.0,-296000.0,-604572000.0,-604572000.0,-604572000.0,0.0,0.0,-0.055,6607678000.0,-544016000.0,1681193000,-1.442,2.029,-68.137,-67.875,28598627000,0.0,70.59,3.734,3.704,1522256000,14169969000,11032048000.0,11032048000.0,145788000.0,-0.017,-0.029,-0.015,-0.048,146396000.0,483823000.0,1.0,583563479,578949000,578949000.0,19.055,35804601000,25164000,-134482000.0,5065081000,61.844,2402064000.0
1,EOG,ARY,2019-12-31,2020-02-27,2019-12-31,2021-08-04,-4652000,37124608000,36270478250.0,5273339000,31851269000,0.479,37.462,-6282234000.0,2027972000,2027972000,7983920000.0,2734910000.0,1.175,0.715,5544808000,1383889000.0,4160919000.0,5544808000,0,3749704000.0,0,0.018,1.083,3730396000.0,7480100000.0,0.43,7480100000.0,3730396000.0,3545267000.0,4.73,4.71,4.73,21640716000,20824767250.0,21640716000,38440103060,10.0,5.139,1880946000.0,3.256,1.0,9396053000.0,0.541,0,185129000.0,36154456000,36164474500.0,767297000,0,0,0,15483892000,4486988000.0,10996904000.0,34923267060,472338000.0,0.0,-7206000.0,-905016000.0,-588200000.0,-1513321000.0,-6177173000.0,0.0,8163180000.0,-348000.0,2734910000.0,2734910000.0,2734910000.0,0.0,0.0,0.157,5697042000.0,3699011000.0,2429127000,0.229,1.614,12.769,12.685,30364595000,0.0,60.0,2.009,1.994,2001658000,15648604000,17379973000.0,17379973000.0,139881000.0,0.075,0.131,0.103,0.215,174738000.0,489397000.0,1.0,582054451,577670000,580777000.0,30.086,37124608000,154028000,810357000.0,5300951000,64.266,786351000.0
2,EOG,ARY,2018-12-31,2019-02-26,2018-12-31,2021-08-04,-1358000,33934474000,32601276750.0,5057390000,28877084000,0.53,33.585,-5849029000.0,1555634000,1555634000,7675175000.0,3419040000.0,1.356,0.752,6083262000,913093000.0,5170169000.0,6083262000,0,3435408000.0,0,0.009,0.81,4486050000.0,7921458000.0,0.459,7921458000.0,4486050000.0,4240998000.0,5.93,5.89,5.93,19364188000,18048922750.0,19364188000,59000426360,13.0,7.448,1919579000.0,3.329,1.0,9600224000.0,0.556,0,245052000.0,34733738000,33962775750.0,859359000,0,0,0,14570286000,3728364000.0,10841922000.0,54472798360,721406000.0,0.0,-42896000.0,-358219000.0,-438045000.0,-839103000.0,-6170162000.0,0.0,7768608000.0,-37937000.0,3419040000.0,3419040000.0,3419040000.0,0.0,0.0,0.198,5130878000.0,4469346000.0,2239850000,0.137,2.813,15.932,15.836,28075519000,0.0,93.91,3.153,3.134,1915215000,13543130000,17275399000.0,17275399000.0,148999000.0,0.105,0.189,0.132,0.26,155337000.0,426969000.0,1.0,580053225,576578000,580441000.0,29.962,33934474000,428686000,821958000.0,4628124000,58.855,1329026000.0
3,EOG,ARY,2017-12-31,2018-02-27,2017-12-31,2021-08-04,-19297000,29833078000,29278493500.0,3279108000,26553970000,0.383,28.337,-3897474000.0,834228000,834228000,5268820000.0,2582579000.0,1.203,0.832,6387071000,356235000.0,6030836000.0,6387071000,0,3409387000.0,0,0.006,0.672,935554000.0,4344941000.0,0.388,4344941000.0,935554000.0,661182000.0,4.49,4.46,4.49,16283273000,14508870750.0,16283273000,67432213520,72.0,15.52,367862000.0,0.64,1.0,5939500000.0,0.53,0,274372000.0,32660379000,32331310000.0,483865000,0,0,0,13549805000,2725542000.0,10824263000.0,61879370520,-765667000.0,0.0,-42568000.0,-606555000.0,-386531000.0,-1035711000.0,-3987409000.0,0.0,4265336000.0,-7883000.0,2582579000.0,2582579000.0,2582579000.0,0.0,0.0,0.23,5013098000.0,926402000.0,1847131000,0.15,3.8,23.96,23.817,25665037000,0.0,106.94,5.521,5.483,1597494000,10593533000,11208320000.0,11208320000.0,145342000.0,0.088,0.178,0.029,0.083,133849000.0,434467000.0,1.0,578636343,574620000,578693000.0,19.506,29833078000,130863000,-1921397000.0,3667088000,51.918,553566000.0
4,EOG,ARY,2016-12-31,2017-02-27,2016-12-31,2021-08-04,-19010000,29459433000,26795828750.0,3554603000,25904830000,0.286,25.266,-1463580000.0,1599895000,1599895000,3832751000.0,-1096686000.0,1.753,1.107,6986358000,6579000.0,6979779000.0,6986358000,0,3553417000.0,0,0.007,0.67,-1275824000.0,2277593000.0,0.298,2277593000.0,-1275824000.0,-1557505000.0,-1.98,-1.98,-1.98,13981581000,12560520500.0,13981581000,61864091659,-48.0,27.162,895483000.0,1.618,1.0,3817881000.0,0.499,0,281681000.0,32818605000,31002487750.0,350017000,0,0,0,15477852000,2027291000.0,13450561000.0,56477628659,881389000.0,54534000.0,-58829000.0,159595000.0,-372845000.0,-242722000.0,-1252944000.0,0.0,2359063000.0,17992000.0,-1096686000.0,-1096686000.0,-1096686000.0,0.0,0.0,-0.143,5043162000.0,-1225281000.0,1511826000,-0.338,4.039,-51.498,-49.449,25707078000,0.0,97.91,7.382,7.082,1216320000,8398118000,7650632000.0,7650632000.0,124953000.0,-0.041,-0.087,-0.041,-0.167,98733000.0,394815000.0,1.0,576832077,553384000,553384000.0,13.825,29459433000,181692000,-460819000.0,5307051000,53.235,1527312000.0
5,EOG,ARY,2015-12-31,2016-02-25,2015-12-31,2021-08-04,-33338000,26975244000,30707260250.0,2592244000,24383000000,0.285,23.718,-4820356000.0,718506000,718506000,4578485000.0,-4524515000.0,1.425,1.084,6660264000,6579000.0,6653685000.0,6660264000,0,3313644000.0,0,0.01,0.671,-6684163000.0,-3370519000.0,-0.385,-3370519000.0,-6684163000.0,-6921556000.0,-8.29,-8.29,-8.29,12943035000,15281249750.0,12943035000,43608770215,-7.0,-12.938,-1225191000.0,-2.245,1.0,4178943000.0,0.477,0,237393000.0,31097715000,33756414500.0,598935000,0,0,0,14032209000,1819287000.0,12212922000.0,37667012215,-1368707000.0,0.0,-26101000.0,737836000.0,-367005000.0,370921000.0,-5320256000.0,0.0,3595165000.0,-14537000.0,-4524515000.0,-4524515000.0,-4524515000.0,0.0,0.0,-0.517,10865022000.0,-6686079000.0,1471953000,-0.081,2.91,-8.325,-8.263,24210721000,0.0,68.5,4.301,4.268,930610000,9870816000,8757428000.0,8757428000.0,149494000.0,-0.147,-0.296,-0.198,-0.763,104519000.0,366594000.0,1.0,549883390,545697000,545697000.0,16.048,26975244000,188516000,-2397041000.0,4681520000,49.433,772957000.0
6,EOG,ARY,2014-12-31,2015-02-18,2014-12-31,2021-08-04,-23056000,34762687000,33676823000.0,5416021000,29346666000,0.536,32.593,-7677473000.0,2087213000,2087213000,6708939000.0,2915487000.0,1.6,0.963,5909933000,6579000.0,5903354000.0,5909933000,0,3997041000.0,0,0.006,0.586,5196773000.0,9193814000.0,0.51,9193814000.0,5196773000.0,4995315000.0,5.36,5.32,5.36,17712582000,17043545500.0,17712582000,56095013236,11.0,6.101,971682000.0,1.788,1.0,11326401000.0,0.628,0,201458000.0,35201099000,34546088000.0,706597000,0,0,0,17050105000,3384308000.0,13665797000.0,52272293236,769004000.0,0.0,-105175000.0,-10641000.0,-279695000.0,-327734000.0,-7513565000.0,0.0,8649155000.0,-38852000.0,2915487000.0,2915487000.0,2915487000.0,0.0,0.0,0.162,6084578000.0,5241823000.0,2860548000,0.109,2.951,17.929,17.782,29172644000,0.0,95.31,2.898,2.872,1779311000,14763098000,18035340000.0,18035340000.0,184388000.0,0.087,0.171,0.15,0.288,45627000.0,402010000.0,1.0,548445003,543443000,548539000.0,33.187,34762687000,91239000,2079828000.0,7073787000,63.967,2031713000.0
7,EOG,ARY,2013-12-31,2014-02-24,2013-12-31,2021-08-04,415834000,30574238000,29507818250.0,4072015000,26502223000,0.491,28.535,-6300070000.0,1318209000,1318209000,5790388000.0,2197109000.0,1.423,0.983,5913221000,6579000.0,5906642000.0,5913221000,0,3600976000.0,0,0.004,0.375,3672346000.0,7273322000.0,0.502,7273322000.0,3672346000.0,3436886000.0,4.065,4.02,4.065,15418459000,14605243500.0,15418459000,53865782789,15.0,7.406,1029344000.0,1.905,1.0,8696730000.0,0.6,0,235460000.0,32307534000,31401433250.0,563268000,0,0,0,15155779000,2861716000.0,12294063000.0,49270770789,441774000.0,0.0,-25054000.0,-405780000.0,-199178000.0,-573926000.0,-6314778000.0,0.0,7329414000.0,1064000.0,2197109000.0,2197109000.0,2197109000.0,0.0,0.0,0.152,5021519000.0,3675211000.0,2254418000,0.092,3.196,22.425,22.189,26148836000,0.0,90.2,3.401,3.364,1658853000,12168277000,14487118000.0,14487118000.0,161346000.0,0.074,0.15,0.117,0.253,78224000.0,348312000.0,1.0,546239144,540340000,546228000.0,26.811,30574238000,249403000,1239777000.0,5681719000,56.583,1210299000.0
8,EOG,ARY,2012-12-31,2013-02-22,2012-12-31,2021-08-04,439895000,27336578000,26730795500.0,3589884000,23746694000,0.437,24.824,-6045340000.0,876435000,876435000,4749892000.0,570279000.0,1.228,1.058,6312181000,406579000.0,5905602000.0,6312181000,0,3169703000.0,0,0.005,0.34,1494292000.0,4663995000.0,0.399,4663995000.0,1494292000.0,1280740000.0,1.065,1.055,1.065,13284764000,13356304500.0,13284764000,39496453563,26.0,8.468,-808563000.0,-1.511,1.0,6932744000.0,0.593,0,213552000.0,29848266000,29011208000.0,683187000,0,0,0,14051814000,2924058000.0,11127756000.0,34060707563,260709000.0,0.0,24295000.0,1229736000.0,-181080000.0,1139751000.0,-6119263000.0,0.0,5236777000.0,3444000.0,570279000.0,570279000.0,570279000.0,0.0,0.0,0.049,5452947000.0,1479797000.0,2078948000,0.319,2.564,59.726,58.845,23337681000,0.0,62.67,2.915,2.871,1656618000,10175631000,11682636000.0,11682636000.0,185569000.0,0.021,0.043,0.052,0.128,60743000.0,331545000.0,1.0,543493020,535154000,541524000.0,21.83,27336578000,29163000,710461000.0,4512317000,51.082,665826000.0
9,EOG,ARY,2011-12-31,2012-02-24,2011-12-30,2021-08-04,401746000,24838797000,24284594000.0,3253938000,21584859000,0.417,24.056,-5517675000.0,615726000,615726000,3578370000.0,1091123000.0,1.29,0.965,5009166000,0.0,5009166000.0,5009166000,0,2516381000.0,0,0.005,0.32,2120162000.0,4636543000.0,0.458,4636543000.0,2120162000.0,1909799000.0,2.075,2.05,2.075,12640904000,12250079000.0,12640904000,36024453103,17.0,7.77,-939265000.0,-1.787,1.0,6547745000.0,0.647,0,210363000.0,26709918000,25603254000.0,590594000,0,0,0,12197893000,2522319000.0,9675574000.0,31631013103,-173127000.0,0.0,1400256000.0,-224787000.0,-167169000.0,1008539000.0,-5754942000.0,0.0,4578410000.0,-5134000.0,1091123000.0,1091123000.0,1091123000.0,0.0,0.0,0.108,4434436000.0,2113309000.0,2033615000,0.154,2.502,28.989,28.325,21288824000,0.0,58.775,3.124,3.05,1451227000,9789345000,10126115000.0,10126115000.0,171658000.0,0.045,0.089,0.083,0.209,128345000.0,304811000.0,1.0,538171214,525470000,532536000.0,19.271,24838797000,26609000,818676000.0,4150313000,47.27,731619000.0
10,EOG,ARY,2010-12-31,2011-02-24,2010-12-31,2021-08-04,440071000,21624233000,19885960750.0,2527446000,19096787000,0.307,20.392,-4908789000.0,788853000,788853000,2107075000.0,160654000.0,1.138,1.113,5223341000,220000000.0,5003341000.0,5223341000,0,1941926000.0,0,0.006,0.31,537562000.0,2479488000.0,0.406,2479488000.0,537562000.0,407976000.0,0.32,0.315,0.32,10231632000,10161423000.0,10231632000,32448437049,60.0,13.087,-2200187000.0,-4.385,1.0,3992821000.0,0.655,0,129586000.0,23838622000,21540115250.0,415792000,0,0,0,11392601000,2220099000.0,9172502000.0,28013949049,103102000.0,-210000000.0,23265000.0,2433359000.0,-153240000.0,2303419000.0,-4902774000.0,0.0,2708602000.0,-6145000.0,160654000.0,160654000.0,160654000.0,0.0,0.0,0.026,3469502000.0,523319000.0,1664944000,0.969,2.738,174.374,172.141,18680900000,0.0,55.085,4.593,4.531,1113279000,8870179000,6099896000.0,6099896000.0,187381000.0,0.008,0.016,0.025,0.088,107378000.0,280474000.0,1.0,508558574,501752000,509000000.0,12.157,21624233000,64176000,247322000.0,3625577000,43.097,307347000.0
11,EOG,ARY,2009-12-31,2010-02-25,2009-12-31,2021-08-04,339720000,18118667000,17029105250.0,1839541000,16279126000,0.281,20.077,-3291009000.0,685751000,685751000,1368869000.0,546627000.0,1.367,0.812,2797000000,37000000.0,2760000000.0,2797000000,0,1549188000.0,0,0.006,0.29,972912000.0,2522100000.0,0.527,2522100000.0,972912000.0,872011000.0,1.1,1.085,1.1,9998042000,9472710250.0,9998042000,25656575101,26.0,10.173,-368570000.0,-0.74,1.0,3418090000.0,0.714,0,100901000.0,18884356000,17876613250.0,261723000,0,0,0,8120625000,1345560000.0,6775065000.0,23545326101,354440000.0,0.0,9479000.0,891105000.0,-142260000.0,834162000.0,-3414551000.0,0.0,2922439000.0,12390000.0,546627000.0,546627000.0,546627000.0,0.0,0.0,0.114,2447249000.0,970841000.0,979139000,0.264,2.355,43.074,42.373,16139225000,0.0,46.61,4.919,4.849,771417000,8866747000,4786959000.0,4786959000.0,169592000.0,0.032,0.058,0.054,0.203,19046000.0,248274000.0,1.0,505156106,497992000,503768000.0,9.613,18118667000,37009000,325384000.0,3510685000,36.383,493981000.0
12,EOG,ARY,2008-12-31,2009-02-25,2008-12-31,2021-08-04,27787000,15951226000,14739820500.0,2108451000,13842775000,0.484,18.273,-4811912000.0,331311000,331311000,1081834000.0,2436919000.0,1.195,0.77,1897000000,37000000.0,1860000000.0,1897000000,0,1326875000.0,0,0.01,0.255,3798197000.0,5125072000.0,0.719,5125072000.0,3798197000.0,3746539000.0,4.94,4.86,4.94,9014497000,8137787250.0,9014497000,14557064591,4.0,2.84,-178663000.0,-0.362,1.0,6045309000.0,0.848,0,51658000.0,15751999000,13946750250.0,187970000,0,0,0,6936729000,1764916000.0,5171813000.0,12991375591,277080000.0,0.0,54738000.0,704415000.0,-115204000.0,645105000.0,-4966518000.0,0.0,4633249000.0,-34756000.0,2436919000.0,2436476000.0,2436476000.0,0.0,0.0,0.342,2278124000.0,3767185000.0,1122209000,0.052,1.441,5.332,5.266,13657302000,443000.0,26.015,1.823,1.801,722695000,8466143000,7127143000.0,7127143000.0,193886000.0,0.165,0.299,0.272,0.533,97493000.0,243708000.0,1.0,499380188,493324000,501084000.0,14.447,15951226000,27053000,1309620000.0,3268018000,32.334,343535000.0
13,EOG,ARY,2007-12-31,2008-02-28,2007-12-31,2021-08-04,466702000,12088907000,10976933000.0,1292039000,10796868000,0.382,14.355,-3595767000.0,54231000,54231000,765605000.0,1089918000.0,0.876,0.729,1185000000,0.0,1185000000.0,1185000000,0,1065545000.0,0,0.003,0.18,1677646000.0,2743191000.0,0.655,2743191000.0,1677646000.0,1630868000.0,2.225,2.185,2.225,6990094000,6438873750.0,6990094000,31941472319,19.0,11.644,-702402000.0,-1.442,1.0,3425186000.0,0.817,0,46778000.0,11745506000,10612712000.0,102322000,0,0,0,5098813000,1474170000.0,3624643000.0,30810703319,-164024000.0,0.0,55320000.0,446352000.0,-84020000.0,393723000.0,-3455774000.0,0.0,2893365000.0,4662000.0,1089918000.0,1083255000.0,1083255000.0,0.0,0.0,0.258,1776790000.0,1648396000.0,1152140000,0.081,4.408,28.443,28.029,10429254000,6663000.0,62.365,7.352,7.246,835670000,6156721000,4190791000.0,4190791000.0,150445000.0,0.099,0.168,0.158,0.4,67253000.0,205210000.0,1.0,494038376,486938000,495274000.0,8.606,12088907000,143903000,540950000.0,2284934000,24.826,-182131000.0
14,EOG,ARY,2006-12-31,2007-02-28,2006-12-31,2021-08-04,176704000,9402160000,8863180750.0,1350080000,8052080000,0.441,11.58,-2799189000.0,218255000,218255000,562790000.0,1299885000.0,1.076,0.679,733442000,0.0,733442000.0,733442000,0,817089000.0,0,0.004,0.12,1955799000.0,2772888000.0,0.71,2772888000.0,1955799000.0,1912641000.0,2.665,2.62,2.665,5599671000,5241415000.0,5599671000,17043621613,9.0,6.147,-220636000.0,-0.456,1.0,3341625000.0,0.856,0,43158000.0,8662335000,7945574500.0,113591000,0,0,0,3802489000,1255012000.0,2547477000.0,16528434613,-425556000.0,0.0,36033000.0,-251625000.0,-60443000.0,-298882000.0,-2710373000.0,0.0,2578553000.0,5146000.0,1299885000.0,1288890000.0,1288890000.0,0.0,0.0,0.33,1446199000.0,1895426000.0,896572000,0.045,2.952,12.824,12.709,7944047000,10995000.0,33.87,4.233,4.195,754134000,5151034000,3904415000.0,3904415000.0,155008000.0,0.145,0.246,0.246,0.501,49875000.0,164981000.0,1.0,487996298,483564000,492200000.0,8.074,9402160000,94311000,612756000.0,1788727000,19.443,95068000.0
15,EOG,ARY,2005-12-31,2006-02-23,2005-12-31,2021-08-04,177137000,7753320000,6831139500.0,1563238000,6190082000,0.53,9.038,-1653776000.0,643811000,643811000,438167000.0,1259576000.0,1.334,0.796,985067000,126075000.0,858992000.0,985067000,0,654258000.0,0,0.002,0.08,2027643000.0,2681901000.0,0.741,2681901000.0,2027643000.0,1965137000.0,2.62,2.565,2.62,4316292000,3680202750.0,4316292000,17283200551,9.0,6.444,715650000.0,1.498,1.0,3182046000.0,0.879,0,62506000.0,6922535000,6758868750.0,63215000,0,0,0,3437028000,1172041000.0,2264987000.0,16941944551,622831000.0,0.0,64668000.0,-92555000.0,-42986000.0,-72310000.0,-1678108000.0,0.0,2369426000.0,3823000.0,1259576000.0,1252144000.0,1252144000.0,0.0,0.0,0.346,1190231000.0,1991815000.0,679548000,0.031,3.925,13.53,13.33,6087179000,7432000.0,34.925,4.68,4.607,762207000,3920483000,3620213000.0,3620213000.0,133116000.0,0.183,0.34,0.3,0.56,50880000.0,125918000.0,1.0,485095048,477594000,487950000.0,7.58,7753320000,24376000,705561000.0,1428149000,16.234,391197000.0
16,EOG,ARY,2004-12-31,2005-02-25,2004-12-31,2021-08-04,148015000,5798923000,5326384750.0,586803000,5212120000,0.426,6.3,-1403225000.0,20980000,20980000,363228000.0,624855000.0,0.928,0.969,1077622000,0.0,1077622000.0,1077622000,0,504403000.0,0,0.003,0.06,989140000.0,1493543000.0,0.658,1493543000.0,989140000.0,926012000.0,1.312,1.288,1.312,2945424000,2616206000.0,2945424000,11964205659,12.0,8.011,41122000.0,0.088,1.0,1907997000.0,0.84,0,63128000.0,6223361000,5798903250.0,40037000,0,0,0,2853499000,632204000.0,2221295000.0,10907563659,16537000.0,0.0,75510000.0,-31250000.0,-37595000.0,-43238000.0,-1396908000.0,0.0,1444347000.0,12336000.0,624855000.0,613963000.0,613963000.0,0.0,0.0,0.27,928802000.0,979195000.0,424581000,0.046,3.703,17.766,17.435,5101603000,10892000.0,22.875,4.803,4.709,447742000,2706845000,2271225000.0,2271225000.0,93941000.0,0.115,0.235,0.171,0.436,29396000.0,115013000.0,1.0,476833384,467504000,476752000.0,4.858,5798923000,25459000,301157000.0,1057403000,12.404,-45401000.0
17,EOG,ARY,2003-12-31,2004-03-11,2003-12-31,2021-08-04,73934000,4749015000,4371518250.0,396014000,4353001000,0.399,4.85,-1190903000.0,4443000,4443000,253757000.0,430145000.0,0.831,1.136,1108872000,0.0,1108872000.0,1108872000,0,441843000.0,0,0.004,0.048,705456000.0,1147299000.0,0.658,1147299000.0,705456000.0,646745000.0,0.915,0.9,0.915,2223381000,2032146000.0,2223381000,6203274703,9.0,5.407,129398000.0,0.282,1.0,1490918000.0,0.855,0,58711000.0,5376925000,4957302000.0,21922000,0,0,0,2525634000,476519000.0,2049115000.0,5098845703,-5405000.0,0.0,13843000.0,-36260000.0,-31294000.0,-57196000.0,-1268510000.0,0.0,1320301000.0,0.0,430145000.0,419113000.0,419113000.0,0.0,0.0,0.24,793604000.0,697314000.0,282379000,0.052,2.293,12.166,11.984,4248917000,11032000.0,10.965,2.923,2.881,295118000,2121214000,1744675000.0,1744675000.0,76358000.0,0.096,0.206,0.142,0.404,11926000.0,100403000.0,1.0,465011008,458388000,466076000.0,3.806,4749015000,39524000,216600000.0,876015000,10.36,-80505000.0
18,EOG,ARY,2002-12-31,2003-03-13,2002-12-31,2021-08-04,-49877000,3814006000,3644021000.0,394792000,3419214000,0.301,3.625,-714127000.0,60673000,60673000,226178000.0,87173000.0,1.429,1.281,1145132000,0.0,1145132000.0,1145132000,0,398036000.0,0,0.004,0.04,179326000.0,577362000.0,0.527,577362000.0,179326000.0,119672000.0,0.165,0.163,0.165,1672395000,1662250750.0,1672395000,5723474693,32.0,9.913,-45557000.0,-0.099,1.0,868858000.0,0.793,0,59654000.0,4622114000,4425004500.0,18928000,0,0,0,2141611000,276351000.0,1865260000.0,4639015693,7336000.0,0.0,-45699000.0,289163000.0,-29152000.0,211304000.0,-872538000.0,0.0,668570000.0,0.0,87173000.0,76141000.0,76141000.0,0.0,0.0,0.07,687527000.0,181331000.0,201931000,0.242,2.774,60.927,61.152,3321548000,11032000.0,10.09,4.236,4.251,259308000,1723948000,1095036000.0,1095036000.0,60228000.0,0.021,0.046,0.041,0.164,5168000.0,88952000.0,1.0,459763696,461340000,468980000.0,2.374,3814006000,0,32499000.0,684118000,8.267,118441000.0
19,EOG,ARY,2001-12-31,2002-03-20,2001-12-31,2021-08-04,-55118000,3414044000,3255851750.0,272421000,3141623000,0.508,3.547,-974016000.0,2512000,2512000,246806000.0,398616000.0,0.876,1.078,855969000,0.0,855969000.0,855969000,0,392399000.0,0,0.004,0.04,676555000.0,1068954000.0,0.646,1068954000.0,676555000.0,631445000.0,0.838,0.825,0.838,1642686000,1630759000.0,1642686000,5535215664,8.0,5.178,223411000.0,0.482,1.0,1408081000.0,0.851,0,45110000.0,3956654000,3564437000.0,18871000,0,0,0,1771358000,310847000.0,1460511000.0,4681758664,-17640000.0,0.0,-95964000.0,-4155000.0,-28580000.0,-127012000.0,-1088055000.0,0.0,1197427000.0,0.0,398616000.0,387622000.0,387622000.0,0.0,0.0,0.234,733529000.0,674552000.0,219561000,0.048,2.85,12.078,12.061,3055910000,10994000.0,10.107,2.829,2.828,194624000,1668708000,1654887000.0,1654887000.0,67467000.0,0.119,0.238,0.19,0.409,7332000.0,79963000.0,1.0,463196504,463060000,469952000.0,3.574,3414044000,19332000,232829000.0,591239000,7.373,-38426000.0
20,EOG,ARY,2000-12-31,2001-03-23,2000-12-31,2021-08-04,-31756000,3000815000,2785284250.0,394427000,2606388000,0.535,2.952,-602638000.0,20152000,20152000,158252000.0,396931000.0,1.067,1.173,859000000,0.0,859000000.0,859000000,0,370026000.0,0,0.003,0.034,694563000.0,1064589000.0,0.715,1064589000.0,694563000.0,633557000.0,0.825,0.81,0.825,1380925000,1231575000.0,1380925000,5914337577,9.0,5.556,364772000.0,0.78,1.0,1331643000.0,0.894,0,61006000.0,3469985000,3413049500.0,16623000,0,0,0,1619890000,369678000.0,1250212000.0,5075489577,-4684000.0,0.0,-145633000.0,-131306000.0,-26071000.0,-304933000.0,-667161000.0,0.0,967410000.0,0.0,396931000.0,385903000.0,385903000.0,0.0,0.0,0.259,634780000.0,696863000.0,246030000,0.041,3.675,13.152,13.176,2525007000,11028000.0,10.87,3.407,3.413,342579000,1301067000,1489895000.0,1489895000.0,67196000.0,0.139,0.313,0.204,0.466,41307000.0,66932000.0,1.0,466926364,467736000,476408000.0,3.185,3000815000,0,236626000.0,418917000,6.416,24749000.0
21,EOG,ARY,1999-12-31,2000-03-08,1999-12-31,2021-08-04,-19810000,2610793000,2790089000.0,200501000,2410292000,0.287,2.005,-402829000.0,24836000,24836000,103433000.0,569094000.0,,1.311,990306000,,,990306000,0,459877000.0,0,0.006,0.03,629531000.0,1089408000.0,1.359,1089408000.0,629531000.0,567712000.0,1.01,0.998,1.01,1129611000,1169018500.0,1129611000,3178430162,5.0,2.918,39303000.0,0.07,1.0,697973000.0,0.871,0,61819000.0,3576263000,3889517000.0,18816000,0,0,0,1481182000,,,2212960162,18533000.0,0.0,590517000.0,-152473000.0,-17395000.0,-60234000.0,-363365000.0,0.0,442132000.0,0.0,569094000.0,568559000.0,568559000.0,0.0,0.0,0.709,679785000.0,18188000.0,218618000,0.03,1.959,3.892,4.673,2334928000,535000.0,4.72,2.761,3.319,148189000,930938000,801406000.0,801406000.0,52773000.0,0.204,0.486,0.162,0.786,0.0,82857000.0,1.0,468847492,563476000,569408000.0,1.422,2610793000,0,-1382000.0,245600000,4.633,
22,EOG,ARY,1998-12-31,1999-03-18,1998-12-31,2021-08-04,-35848000,3018095000,2870318250.0,246350000,2771745000,0.268,2.074,-690352000.0,6303000,6303000,121619000.0,56171000.0,,1.357,1142779000,,,1142779000,4198000,315106000.0,0,0.007,0.03,108861000.0,423967000.0,0.551,423967000.0,108861000.0,60282000.0,0.09,0.09,0.09,1280304000,1288837750.0,1280304000,3797571796,35.0,8.957,-286746000.0,-0.464,1.0,647569000.0,0.842,0,48579000.0,4154571000,3828581750.0,39581000,0,0,0,1737791000,,,2661095796,-3027000.0,0.0,-22992000.0,401504000.0,-18504000.0,352987000.0,-759620000.0,0.0,403606000.0,0.0,56171000.0,56171000.0,56171000.0,0.0,0.0,0.073,533908000.0,113661000.0,308961000,0.333,2.078,47.375,48.083,2676363000,0.0,4.327,3.46,3.473,193588000,838371000,769188000.0,769188000.0,65940000.0,0.02,0.044,0.028,0.142,0.0,69010000.0,1.0,614926816,617380000,620216000.0,1.246,3018095000,0,4111000.0,280424000,4.889,
23,EOG,ARY,1997-12-31,1998-03-13,1997-12-31,2021-08-04,-19771000,2723355000,,282035000,2441320000,,2.035,-626198000.0,9330000,9330000,96064000.0,121970000.0,,1.126,741275000,,,741275000,39918000,278179000.0,0,0.005,0.03,191187000.0,469366000.0,0.599,469366000.0,191187000.0,163470000.0,0.195,0.193,0.195,1281049000,,1281049000,4195526997,22.0,8.939,-95269000.0,-0.151,1.0,687437000.0,0.877,0,27717000.0,3455300000,,32040000,0,0,0,1442306000,,,3463581997,1686000.0,0.0,-94165000.0,279095000.0,-18938000.0,167887000.0,-697130000.0,0.0,530929000.0,0.0,121970000.0,121970000.0,121970000.0,0.0,0.0,0.156,494662000.0,192775000.0,335696000,0.154,2.704,28.397,28.692,2387207000,0.0,5.595,4.421,4.495,232099000,800709000,783501000.0,783501000.0,57696000.0,,,,0.244,0.0,54415000.0,1.0,619049508,629504000,632640000.0,1.245,2723355000,0,41500000.0,316519000,4.326,
0,EOG,ARQ,2021-06-30,2021-08-04,2021-06-30,2021-08-04,-15000000,36885000000,,6935000000,29950000000,,36.002,-882000000.0,3880000000,3880000000,1616000000.0,907000000.0,1.733,0.766,5378000000,292000000.0,5086000000.0,5378000000,0,914000000.0,0,0.036,1.413,1169000000.0,2083000000.0,0.503,2083000000.0,1169000000.0,1124000000.0,1.56,1.55,1.56,20881000000,,20881000000,42800267435,17.0,7.032,677000000.0,1.167,1.0,2523000000.0,0.61,0,45000000.0,34381000000,,516000000,0,0,0,16004000000,4002000000.0,12002000000.0,41302267435,492000000.0,0.0,7000000.0,-9000000.0,-239000000.0,-241000000.0,-828000000.0,0.0,1559000000.0,2000000.0,907000000.0,907000000.0,907000000.0,0.0,0.0,0.219,1352000000.0,1171000000.0,2012000000,0.906,1.978,21.981,21.766,28659000000,0.0,70.74,3.166,3.145,2015000000,14689000000,4139000000.0,4139000000.0,35000000.0,,,,,31000000.0,120000000.0,1.0,583860156,580000000,584000000.0,7.136,36885000000,14000000,217000000.0,5016000000,63.595,2933000000.0
1,EOG,ARQ,2021-03-31,2021-05-06,2021-03-31,2021-08-04,-14000000,36171000000,,6191000000,29980000000,,35.797,-912000000.0,3388000000,3388000000,1460000000.0,677000000.0,1.869,0.742,5402000000,308000000.0,5094000000.0,5402000000,0,900000000.0,0,0.02,0.412,928000000.0,1828000000.0,0.495,1828000000.0,928000000.0,881000000.0,1.17,1.16,1.17,20762000000,,20762000000,46939922292,147.0,12.971,958000000.0,1.652,1.0,2234000000.0,0.605,0,47000000.0,34873000000,,562000000,0,0,0,15409000000,3312000000.0,12097000000.0,44925922292,59000000.0,0.0,-10000000.0,-759000000.0,-219000000.0,-988000000.0,-821000000.0,0.0,1870000000.0,-2000000.0,677000000.0,677000000.0,677000000.0,0.0,0.0,0.183,1302000000.0,932000000.0,1945000000,0.352,2.164,717.495,641.5,28666000000,0.0,76.98,4.489,4.461,1828000000,14606000000,3694000000.0,3694000000.0,33000000.0,,,,,35000000.0,110000000.0,1.0,583605122,580000000,583000000.0,6.369,36171000000,4000000,204000000.0,5274000000,62.364,2879000000.0
2,EOG,ARQ,2020-12-31,2021-02-25,2020-12-31,2021-08-04,-12328000,35804601000,,5862168000,29942433000,,35.029,-838177000.0,3328928000,3328928000,1197737000.0,337466000.0,1.694,0.764,6111494000,1076143000.0,5035351000.0,6111494000,0,870564000.0,0,0.021,0.375,480881000.0,1351445000.0,0.456,1351445000.0,480881000.0,427760000.0,0.59,0.59,0.59,20301887000,,20301887000,43976311983,-82.0,15.341,283061000.0,0.488,1.0,1767761000.0,0.596,0,53121000.0,35127063000,,629401000,0,0,0,15502714000,3460104000.0,12042610000.0,41193745983,263372000.0,0.0,6246000.0,-6149000.0,-219581000.0,-219484000.0,-636848000.0,0.0,1121238000.0,-1534000.0,337466000.0,337466000.0,337466000.0,0.0,0.0,0.114,1280099000.0,487662000.0,1681193000,0.636,2.029,-68.137,-67.875,28598627000,0.0,70.59,3.734,3.704,1522256000,14169969000,2965498000.0,2965498000.0,40415000.0,,,,,32942000.0,113235000.0,1.0,583563479,579576000,579576000.0,5.117,35804601000,25164000,90294000.0,5065081000,61.777,2402064000.0
3,EOG,ARQ,2020-09-30,2020-11-05,2020-09-30,2021-08-04,-7930000,35074018000,,5095057000,29978961000,,34.795,-340564000.0,3065556000,3065556000,1056475000.0,-42467000.0,1.687,0.741,5976090000,1026188000.0,4949902000.0,5976090000,0,823050000.0,0,0.04,0.375,687000.0,823737000.0,0.367,823737000.0,687000.0,-52555000.0,-0.07,-0.07,-0.07,20148326000,,20148326000,23678806642,-166.0,7.076,872989000.0,1.508,1.0,1189009000.0,0.53,0,53242000.0,34964510000,,668541000,0,0,0,14925692000,3020042000.0,11905650000.0,20768272642,649055000.0,0.0,-9764000.0,-4864000.0,-217142000.0,-231770000.0,-334473000.0,0.0,1213553000.0,1745000.0,-42467000.0,-42467000.0,-42467000.0,0.0,0.0,-0.019,1191723000.0,-2714000.0,1245029000,-5.357,1.031,-67.977,-68.462,28633006000,0.0,35.6,1.677,1.664,1134346000,14051197000,2245484000.0,2245484000.0,38413000.0,,,,,33811000.0,124460000.0,1.0,583378445,579055000,579055000.0,3.878,35074018000,5098000,-10088000.0,5071901000,60.571,2075015000.0
4,EOG,ARQ,2020-06-30,2020-08-06,2020-06-30,2021-08-04,-6130000,35221671000,,4597391000,30624280000,,35.229,-431006000.0,2416501000,2416501000,938372000.0,-909384000.0,2.134,0.728,5976904000,273763000.0,5703141000.0,5976904000,0,706679000.0,0,0.026,0.375,-1091049000.0,-384370000.0,-0.348,-384370000.0,-1091049000.0,-1145262000.0,-1.57,-1.57,-1.57,20387557000,,20387557000,33190777819,48.0,7.695,-342932000.0,-0.593,1.0,165002000.0,0.15,0,54213000.0,36627693000,,676580000,0,0,0,14834114000,2154381000.0,12679733000.0,29630374819,-490351000.0,0.0,8146000.0,476393000.0,-217042000.0,267497000.0,-845242000.0,0.0,88074000.0,-680000.0,-909384000.0,-909384000.0,-909384000.0,0.0,0.0,-0.824,1251551000.0,-1086549000.0,1281166000,-0.239,1.453,84.16,83.426,29233465000,0.0,50.89,2.051,2.039,943354000,14312493000,1103374000.0,1103374000.0,27283000.0,,,,,39571000.0,131855000.0,1.0,582243561,578719000,578719000.0,1.907,35221671000,198804000,-235878000.0,5031659000,60.861,2443010000.0
5,EOG,ARQ,2020-03-31,2020-05-07,2020-03-31,2021-08-04,-3305000,37634084000,,6491049000,31143035000,,37.117,-1663025000.0,2906852000,2906852000,1775802000.0,9813000.0,1.508,0.753,5544536000,841384000.0,4703152000.0,5544536000,0,1000060000.0,0,0.026,0.375,75693000.0,1075753000.0,0.228,1075753000.0,75693000.0,31003000.0,0.02,0.02,0.02,21470675000,,21470675000,30756323410,11.0,4.527,921893000.0,1.594,1.0,2941890000.0,0.624,0,44690000.0,35966757000,,662398000,0,0,0,16163409000,4305011000.0,11858398000.0,28118639410,878880000.0,0.0,-4589000.0,-3621000.0,-167058000.0,-175268000.0,-1530943000.0,0.0,2584918000.0,173000.0,9813000.0,9813000.0,9813000.0,0.0,0.0,0.002,2884305000.0,57585000.0,2892320000,18.75,1.31,13.331,13.236,29694054000,0.0,48.31,1.559,1.549,1449637000,15440142000,4717692000.0,4717692000.0,39677000.0,,,,,40072000.0,114273000.0,1.0,582045941,578462000,580283000.0,8.156,37634084000,311886000,21190000.0,5291311000,65.059,2186038000.0
6,EOG,ARQ,2019-12-31,2020-02-27,2019-12-31,2021-08-04,-4652000,37124608000,,5273339000,31851269000,,37.429,-1263411000.0,2027972000,2027972000,1907724000.0,636521000.0,1.175,0.715,5544808000,1383889000.0,4160919000.0,5544808000,0,959208000.0,0,0.018,0.287,871903000.0,1831111000.0,0.424,1831111000.0,871903000.0,831208000.0,1.1,1.1,1.1,21640716000,,21640716000,38440103060,10.0,5.139,543793000.0,0.941,1.0,2412522000.0,0.558,0,40695000.0,36154456000,,767297000,0,0,0,15483892000,4486988000.0,10996904000.0,34923267060,444867000.0,0.0,5474000.0,9638000.0,-167349000.0,-165136000.0,-1197027000.0,0.0,1807204000.0,-174000.0,636521000.0,636521000.0,636521000.0,0.0,0.0,0.147,1548771000.0,863751000.0,2429127000,0.261,1.614,12.769,12.685,30364595000,0.0,60.0,2.009,1.994,2001658000,15648604000,4320246000.0,4320246000.0,36495000.0,,,,,42415000.0,125187000.0,1.0,582054451,578186000,579538000.0,7.472,37124608000,154028000,194687000.0,5300951000,64.209,786351000.0
7,EOG,ARQ,2019-09-30,2019-11-06,2019-09-30,2021-08-04,-3689000,36542269000,,4819731000,31722538000,,36.557,-1473087000.0,1583105000,1583105000,2043228000.0,615122000.0,1.077,0.73,5561663000,1398548000.0,4163115000.0,5561663000,0,953597000.0,0,0.014,0.287,837077000.0,1790674000.0,0.416,1790674000.0,837077000.0,797457000.0,1.06,1.06,1.06,21124280000,,21124280000,45528149665,11.0,5.903,588577000.0,1.019,1.0,2260227000.0,0.525,0,39620000.0,36047114000,,778120000,0,0,0,15417989000,4473713000.0,10944276000.0,41549591665,422620000.0,0.0,-12972000.0,-3349000.0,-166170000.0,-182469000.0,-1456466000.0,0.0,2061664000.0,-109000.0,615122000.0,615122000.0,615122000.0,0.0,0.0,0.143,1432268000.0,827959000.0,2395080000,0.271,1.967,13.891,13.788,30204322000,0.0,71.42,2.356,2.34,1927996000,15179381000,4303455000.0,4303455000.0,34540000.0,,,,,54670000.0,135758000.0,1.0,581764095,577839000,581271000.0,7.447,36542269000,137678000,182335000.0,5225578000,63.24,346018000.0
8,EOG,ARQ,2019-06-30,2019-08-01,2019-06-30,2021-08-04,-4528000,35751501000,,4495521000,31255980000,,35.726,-1560349000.0,1160485000,1160485000,2138709000.0,847841000.0,1.018,0.733,5575707000,1410423000.0,4165284000.0,5575707000,0,957304000.0,0,0.012,0.287,1139274000.0,2096578000.0,0.446,2096578000.0,1139274000.0,1089366000.0,1.47,1.46,1.47,20630276000,,20630276000,51489576355,11.0,6.166,1126194000.0,1.95,1.0,2558921000.0,0.545,0,49908000.0,35752666000,,853128000,0,0,0,15121225000,4414057000.0,10707168000.0,47074354355,24675000.0,0.0,6137000.0,-908115000.0,-127135000.0,-1029135000.0,-1632674000.0,0.0,2686543000.0,-59000.0,847841000.0,847841000.0,847841000.0,0.0,0.0,0.18,1428150000.0,1130771000.0,2387403000,0.195,2.282,13.197,13.118,29724431000,0.0,81.07,2.599,2.585,2001953000,14731609000,4697630000.0,4697630000.0,32522000.0,,,,,38566000.0,121780000.0,1.0,580663061,577460000,580247000.0,8.135,35751501000,122853000,241525000.0,5007246000,61.912,81464000.0
9,EOG,ARQ,2019-03-31,2019-05-02,2019-03-31,2021-08-04,-2869000,35663535000,,4907885000,30755650000,,34.483,-1985387000.0,1135810000,1135810000,1894259000.0,635426000.0,1.141,0.792,6477205000,1311155000.0,5166050000.0,6477205000,0,879595000.0,0,0.009,0.22,882142000.0,1761737000.0,0.434,1761737000.0,882142000.0,827236000.0,1.1,1.1,1.1,19903797000,,19903797000,57088940920,13.0,7.084,-377618000.0,-0.654,1.0,2164383000.0,0.533,0,54906000.0,36703662000,,860764000,0,0,0,15759738000,4301268000.0,11458470000.0,51747545920,-419824000.0,0.0,-5845000.0,-3190000.0,-127546000.0,-136581000.0,-1891006000.0,0.0,1607769000.0,-6000.0,635426000.0,635426000.0,635426000.0,0.0,0.0,0.157,1287853000.0,876530000.0,2452337000,0.2,2.6,15.149,15.062,29129003000,0.0,89.17,2.931,2.916,2203438000,14050676000,4058642000.0,4058642000.0,36324000.0,,,,,39087000.0,106672000.0,1.0,580324615,577207000,580222000.0,7.032,35663535000,441441000,191810000.0,4759696000,61.786,606617000.0
10,EOG,ARQ,2018-12-31,2019-02-26,2018-12-31,2021-08-04,-1358000,33934474000,,5057390000,28877084000,,33.559,-1086295000.0,1555634000,1555634000,2004494000.0,892768000.0,1.356,0.752,6083262000,913093000.0,5170169000.0,6083262000,0,919963000.0,0,0.009,0.22,1144360000.0,2064323000.0,0.451,2064323000.0,1144360000.0,1088340000.0,1.55,1.54,1.55,19364188000,,19364188000,59000426360,13.0,7.448,998933000.0,1.731,1.0,2570042000.0,0.562,0,56020000.0,34733738000,,859359000,0,0,0,14570286000,3728364000.0,10841922000.0,54472798360,281502000.0,0.0,3564000.0,-353167000.0,-126970000.0,-476573000.0,-1291894000.0,0.0,2085228000.0,-35259000.0,892768000.0,892768000.0,892768000.0,0.0,0.0,0.195,1446902000.0,1123140000.0,2239850000,0.142,2.813,15.932,15.836,28075519000,0.0,93.91,3.153,3.134,1915215000,13543130000,4574536000.0,4574536000.0,33862000.0,,,,,39047000.0,116904000.0,1.0,580053225,577019000,580438000.0,7.928,33934474000,428686000,195572000.0,4628124000,58.81,1329026000.0
11,EOG,ARQ,2018-09-30,2018-11-01,2018-09-30,2021-08-04,-19458000,33637736000,,4817092000,28820644000,,32.115,-1645866000.0,1274132000,1274132000,1958990000.0,1190952000.0,1.089,0.814,6434823000,1262874000.0,5171949000.0,6434823000,0,918180000.0,0,0.007,0.22,1509995000.0,2428175000.0,0.508,2428175000.0,1509995000.0,1446363000.0,2.06,2.05,2.06,18538470000,,18538470000,67146527052,18.0,9.306,543731000.0,0.942,1.0,2822634000.0,0.59,0,63632000.0,34373280000,,766964000,0,0,0,15099266000,4425147000.0,10674119000.0,61985836052,265917000.0,0.0,-25582000.0,-1698000.0,-107465000.0,-134717000.0,-1788650000.0,0.0,2189597000.0,-313000.0,1190952000.0,1190952000.0,1190952000.0,0.0,0.0,0.249,1315947000.0,1506687000.0,2435773000,0.107,3.344,12.505,12.415,27947741000,0.0,106.89,3.864,3.846,2151247000,12778104000,4781624000.0,4781624000.0,32823000.0,,,,,49001000.0,111284000.0,1.0,579903041,577254000,581559000.0,8.283,33637736000,337818000,255411000.0,4449155000,58.272,391945000.0
12,EOG,ARQ,2018-06-30,2018-08-02,2018-06-30,2021-08-04,-17512000,32092380000,,4231852000,27860528000,,30.292,-1678486000.0,1008215000,1008215000,2026935000.0,696731000.0,0.985,0.839,6434797000,1262540000.0,5172257000.0,6434797000,0,848674000.0,0,0.006,0.185,956380000.0,1805054000.0,0.426,1805054000.0,956380000.0,892936000.0,1.21,1.2,1.21,17452394000,,17452394000,78365336729,31.0,13.399,263131000.0,0.457,1.0,2211142000.0,0.522,0,63444000.0,33221661000,,670994000,0,0,0,14639986000,4297301000.0,10342685000.0,72938754729,192121000.0,0.0,-5555000.0,-1683000.0,-106584000.0,-113850000.0,-1633191000.0,0.0,1941617000.0,-2455000.0,696731000.0,696731000.0,696731000.0,0.0,0.0,0.164,1246211000.0,964931000.0,2336952000,0.153,4.179,18.865,18.74,27153795000,0.0,125.93,5.246,5.218,1907990000,11714656000,4238077000.0,4238077000.0,47478000.0,,,,,31803000.0,104083000.0,1.0,579200784,576135000,580375000.0,7.356,32092380000,381186000,196205000.0,4079265000,55.703,-65449000.0
13,EOG,ARQ,2018-03-31,2018-05-03,2018-03-31,2021-08-04,-14289000,30740517000,,3585097000,27155420000,,29.249,-1438382000.0,816094000,816094000,1684756000.0,638589000.0,1.264,0.825,6434759000,363155000.0,6071604000.0,6434759000,0,748591000.0,0,0.006,0.185,875315000.0,1623906000.0,0.441,1623906000.0,875315000.0,813359000.0,1.11,1.1,1.11,16840639000,,16840639000,72772360701,43.0,14.433,113784000.0,0.198,1.0,1996406000.0,0.542,0,61956000.0,33522424000,,584729000,0,0,0,13899878000,2836758000.0,11063120000.0,67153695701,-18134000.0,0.0,-15323000.0,-1671000.0,-97026000.0,-113963000.0,-1456427000.0,0.0,1552166000.0,90000.0,638589000.0,638589000.0,638589000.0,0.0,0.0,0.173,1121818000.0,874588000.0,1915651000,0.167,3.988,21.034,20.903,26375648000,0.0,116.01,5.469,5.44,1702100000,11125051000,3681162000.0,3681162000.0,34836000.0,,,,,35486000.0,94698000.0,1.0,578861268,575775000,579726000.0,6.393,30740517000,280971000,174770000.0,3869224000,53.39,748339000.0
14,EOG,ARQ,2017-12-31,2018-02-27,2017-12-31,2021-08-04,-19297000,29833078000,,3279108000,26553970000,,28.301,-1021521000.0,834228000,834228000,1531051000.0,2430468000.0,1.203,0.832,6387071000,356235000.0,6030836000.0,6387071000,0,881745000.0,0,0.006,0.168,476715000.0,1358460000.0,0.407,1358460000.0,476715000.0,413353000.0,4.23,4.2,4.23,16283273000,,16283273000,67432213520,72.0,15.52,306027000.0,0.532,1.0,1809388000.0,0.542,0,63362000.0,32660379000,,483865000,0,0,0,13549805000,2725542000.0,10824263000.0,61879370520,-11910000.0,0.0,-3368000.0,-1658000.0,-97270000.0,-102257000.0,-1231925000.0,0.0,1327548000.0,-5276000.0,2430468000.0,2430468000.0,2430468000.0,0.0,0.0,0.728,1333476000.0,475912000.0,1847131000,0.04,3.8,23.96,23.817,25665037000,0.0,106.94,5.521,5.483,1597494000,10593533000,3340439000.0,3340439000.0,22941000.0,,,,,32312000.0,117005000.0,1.0,578636343,575370000,579413000.0,5.806,29833078000,130863000,-2017115000.0,3667088000,51.85,553566000.0
15,EOG,ARQ,2017-09-30,2017-11-02,2017-09-30,2021-08-04,-17160000,28805305000,,2763963000,26041342000,,24.222,-1077720000.0,846138000,846138000,1261684000.0,100541000.0,1.268,1.069,6387006000,6579000.0,6380427000.0,6387006000,0,846222000.0,0,0.007,0.168,215062000.0,1061284000.0,0.401,1061284000.0,215062000.0,145980000.0,0.17,0.17,0.17,13922264000,,13922264000,65068537728,194.0,17.462,-116357000.0,-0.202,1.0,1383160000.0,0.523,0,69082000.0,32166149000,,344016000,0,0,0,14883041000,2180024000.0,12703017000.0,59527669728,-803305000.0,0.0,-27130000.0,-601646000.0,-96277000.0,-725149000.0,-1036389000.0,0.0,961363000.0,-3130000.0,100541000.0,100541000.0,100541000.0,0.0,0.0,0.038,1168324000.0,214836000.0,1635711000,0.988,4.276,6099.771,5147.5,25724589000,0.0,102.95,5.796,5.762,1243535000,8259971000,2644844000.0,2644844000.0,30796000.0,,,,,43476000.0,111717000.0,1.0,578219230,574783000,578736000.0,4.601,28805305000,144287000,45439000.0,5287754000,50.115,583939000.0
16,EOG,ARQ,2017-06-30,2017-08-01,2017-06-30,2021-08-04,-17490000,29263617000,,3383373000,25880244000,,24.201,-898482000.0,1649443000,1649443000,1266914000.0,23053000.0,1.243,1.105,6986804000,606454000.0,6380350000.0,6986804000,0,865384000.0,0,0.007,0.168,132880000.0,998264000.0,0.382,998264000.0,132880000.0,62467000.0,0.04,0.04,0.04,13901715000,,13901715000,59883110321,-746.0,17.806,179894000.0,0.313,1.0,1345558000.0,0.515,0,70413000.0,31878724000,,336198000,0,0,0,15361902000,2722254000.0,12639648000.0,54545749321,102877000.0,0.0,4202000.0,-1632000.0,-96277000.0,-93707000.0,-882668000.0,0.0,1078376000.0,876000.0,23053000.0,23053000.0,23053000.0,0.0,0.0,0.009,1217650000.0,127908000.0,1615170000,4.2,3.924,-194.264,-188.92,25580160000,0.0,94.46,5.598,5.569,1114454000,8256359000,2612472000.0,2612472000.0,34711000.0,,,,,27601000.0,108507000.0,1.0,577448119,574439000,578483000.0,4.548,29263617000,108144000,39414000.0,5214978000,50.943,661119000.0
17,EOG,ARQ,2017-03-31,2017-05-08,2017-03-31,2021-08-04,-18664000,29211974000,,3394076000,25817898000,,24.268,-899751000.0,1546566000,1546566000,1209171000.0,28517000.0,1.67,1.097,6986587000,6579000.0,6980008000.0,6986587000,0,816036000.0,0,0.007,0.168,110897000.0,926933000.0,0.355,926933000.0,110897000.0,39382000.0,0.05,0.05,0.05,13928231000,,13928231000,58369766097,-112.0,20.002,-1702000.0,-0.003,1.0,1401394000.0,0.537,0,71515000.0,32619988000,,314194000,0,0,0,15283743000,2032007000.0,13251736000.0,52929745097,-53329000.0,0.0,-16272000.0,-1619000.0,-96707000.0,-114598000.0,-836427000.0,0.0,898049000.0,-353000.0,28517000.0,28517000.0,28517000.0,0.0,0.0,0.011,1293648000.0,107746000.0,1556875000,3.36,3.8,-88.75,-85.692,25606460000,0.0,91.69,5.943,5.908,1187112000,8329951000,2610565000.0,2610565000.0,56894000.0,,,,,30460000.0,97238000.0,1.0,577268460,573935000,578593000.0,4.549,29211974000,96735000,10865000.0,5167336000,50.898,1362069000.0
18,EOG,ARQ,2016-12-31,2017-02-27,2016-12-31,2021-08-04,-19010000,29459433000,,3554603000,25904830000,,24.458,-79355000.0,1599895000,1599895000,1102122000.0,-142352000.0,1.753,1.107,6986358000,6579000.0,6979779000.0,6986358000,0,862524000.0,0,0.007,0.168,-122685000.0,739839000.0,0.308,739839000.0,-122685000.0,-194010000.0,-0.24,-0.24,-0.24,13981581000,,13981581000,61864091659,-48.0,27.162,725390000.0,1.269,1.0,1299917000.0,0.541,0,71325000.0,32818605000,,350017000,0,0,0,15477852000,2027291000.0,13450561000.0,56477628659,551168000.0,54534000.0,-17471000.0,-165436000.0,-96119000.0,-270886000.0,10667000.0,0.0,804745000.0,6642000.0,-142352000.0,-142352000.0,-142352000.0,0.0,0.0,-0.059,1405404000.0,-105487000.0,1511826000,-0.7,4.039,-51.498,-49.449,25707078000,0.0,97.91,7.382,7.082,1216320000,8398118000,2402039000.0,2402039000.0,39110000.0,,,,,23732000.0,102182000.0,1.0,576832077,571651000,571651000.0,4.202,29459433000,181692000,-51658000.0,5307051000,51.534,1527312000.0
19,EOG,ARQ,2016-09-30,2016-11-03,2016-09-30,2021-08-04,-25100000,25554921000,,2737764000,22817157000,,21.536,-448621000.0,1048727000,1048727000,1022722000.0,-190000000.0,1.58,1.166,6986117000,6579000.0,6979538000.0,6986117000,0,899511000.0,0,0.007,0.168,-201392000.0,698119000.0,0.33,698119000.0,-201392000.0,-272250000.0,-0.35,-0.35,-0.35,11798312000,,11798312000,59017614371,-40.0,29.937,310960000.0,0.568,1.0,1095782000.0,0.517,0,70858000.0,29759348000,,429667000,0,0,0,13756609000,1732963000.0,12023646000.0,53080224371,269005000.0,0.0,-23227000.0,-1596000.0,-92690000.0,-108083000.0,-382484000.0,0.0,759581000.0,-9000.0,-190000000.0,-190000000.0,-190000000.0,0.0,0.0,-0.09,1289262000.0,-193480000.0,1296240000,-0.48,4.499,-42.854,-40.743,22644385000,0.0,92.08,7.534,7.16,920189000,8641704000,2118504000.0,2118504000.0,25455000.0,,,,,27341000.0,94397000.0,1.0,576457693,547838000,547838000.0,3.867,25554921000,137276000,-82250000.0,4211602000,46.647,1004801000.0
20,EOG,ARQ,2016-06-30,2016-08-04,2016-06-30,2021-08-04,-25264000,25830538000,,2450121000,23380417000,,22.028,-369080000.0,779722000,779722000,906964000.0,-292558000.0,1.431,1.142,6985865000,6579000.0,6979286000.0,6985865000,0,862491000.0,0,0.008,0.168,-309169000.0,553322000.0,0.312,553322000.0,-309169000.0,-380277000.0,-0.53,-0.53,-0.53,12056701000,,12056701000,52592353883,-7.0,-12.466,134066000.0,0.245,1.0,868776000.0,0.489,0,71108000.0,30324420000,,495826000,0,0,0,13773837000,1712261000.0,12061576000.0,46386210883,111241000.0,0.0,-8147000.0,-1591000.0,-91866000.0,-89817000.0,-312375000.0,0.0,503146000.0,10287000.0,-292558000.0,-292558000.0,-292558000.0,0.0,0.0,-0.165,1156949000.0,-288173000.0,1305651000,-0.317,3.847,-9.052,-8.981,23212879000,0.0,84.24,6.534,6.495,935592000,8923666000,1775740000.0,1775740000.0,30559000.0,,,,,15280000.0,97705000.0,1.0,550643529,547335000,547335000.0,3.244,25830538000,51592000,-87719000.0,4242172000,47.193,737860000.0
21,EOG,ARQ,2016-03-31,2016-05-05,2016-03-31,2021-08-04,-31131000,26338423000,,2365812000,23972611000,,22.691,-566524000.0,668481000,668481000,800943000.0,-471776000.0,1.528,1.123,6985608000,6579000.0,6979029000.0,6985608000,0,928891000.0,0,0.008,0.168,-642578000.0,286313000.0,0.211,286313000.0,-642578000.0,-710968000.0,-0.86,-0.86,-0.86,12405488000,,12405488000,51032597096,-7.0,-13.38,-274933000.0,-0.503,1.0,553406000.0,0.409,0,68390000.0,31107578000,,538926000,0,0,0,13932935000,1547972000.0,12384963000.0,44715470096,-50025000.0,0.0,-9984000.0,328218000.0,-92170000.0,226064000.0,-568752000.0,0.0,291591000.0,1072000.0,-471776000.0,-471776000.0,-471776000.0,0.0,0.0,-0.348,1191547000.0,-638141000.0,1182025000,-0.195,3.604,-9.264,-9.192,23801433000,0.0,81.26,5.738,5.701,780625000,9308463000,1354349000.0,1354349000.0,29829000.0,,,,,32380000.0,100531000.0,1.0,550276521,546715000,546715000.0,2.477,26338423000,216102000,-239192000.0,4513298000,48.176,817840000.0
22,EOG,ARQ,2015-12-31,2016-02-25,2015-12-31,2021-08-04,-33338000,26975244000,,2592244000,24383000000,,23.688,-794281000.0,718506000,718506000,957426000.0,-284296000.0,1.425,1.084,6660264000,6579000.0,6653685000.0,6660264000,0,769457000.0,0,0.01,0.168,-335833000.0,433624000.0,0.241,433624000.0,-335833000.0,-398826000.0,-0.52,-0.52,-0.52,12943035000,,12943035000,43608770215,-7.0,-12.938,-178468000.0,-0.327,1.0,839335000.0,0.467,0,62993000.0,31097715000,,598935000,0,0,0,14032209000,1819287000.0,12212922000.0,37667012215,-24183000.0,0.0,2351000.0,228443000.0,-92428000.0,140218000.0,-774858000.0,0.0,615813000.0,-5356000.0,-284296000.0,-284296000.0,-284296000.0,0.0,0.0,-0.158,1169088000.0,-329753000.0,1471953000,-0.323,2.91,-8.325,-8.263,24210721000,0.0,68.5,4.301,4.268,930610000,9870816000,1796761000.0,1796761000.0,34946000.0,,,,,26812000.0,109014000.0,1.0,549883390,546390000,546390000.0,3.288,26975244000,188516000,-114530000.0,4681520000,49.37,772957000.0
23,EOG,ARQ,2015-09-30,2015-11-05,2015-09-30,2021-08-04,-34979000,27277247000,,2824958000,24452289000,,24.334,-1328796000.0,742689000,742689000,1137813000.0,-4075739000.0,1.38,1.053,6430210000,36279000.0,6393931000.0,6430210000,0,722172000.0,0,0.008,0.168,-6214350000.0,-5492178000.0,-2.528,-5492178000.0,-6214350000.0,-6274921000.0,-7.47,-7.47,-7.47,13284223000,,13284223000,53220701979,-10.0,-33.433,-197364000.0,-0.362,1.0,1034615000.0,0.476,0,60571000.0,30917807000,,660252000,0,0,0,13993024000,2046961000.0,11946063000.0,47533180979,-624706000.0,0.0,-16574000.0,23806000.0,-91447000.0,-76370000.0,-1678216000.0,0.0,1131432000.0,-1552000.0,-4075739000.0,-4075739000.0,-4075739000.0,0.0,0.0,-1.876,7257572000.0,-6222957000.0,1561574000,-0.022,3.578,-12.523,-12.424,24275332000,0.0,86.47,4.096,4.067,1123111000,10247349000,2172428000.0,2172428000.0,31344000.0,,,,,32450000.0,90959000.0,1.0,549707193,545920000,545920000.0,3.979,27277247000,94286000,-2199182000.0,4756741000,49.966,777997000.0
24,EOG,ARQ,2015-06-30,2015-08-06,2015-06-30,2021-08-04,-28003000,33884096000,,3737718000,30146378000,,31.947,-1152798000.0,1367395000,1367395000,1204112000.0,5268000.0,1.641,0.944,6400464000,6579000.0,6393885000.0,6400464000,0,909227000.0,0,0.009,0.168,49006000.0,958233000.0,0.388,958233000.0,49006000.0,-11478000.0,0.01,0.01,0.01,17427243000,,17427243000,47692708712,17.0,7.113,-265425000.0,-0.487,1.0,1265589000.0,0.512,0,60484000.0,36639584000,,661162000,0,0,0,16456853000,2277581000.0,14179272000.0,42659639712,-760024000.0,0.0,-403000.0,-501514000.0,-91469000.0,-585499000.0,-1062960000.0,0.0,887373000.0,1062000.0,5268000.0,5268000.0,5268000.0,0.0,0.0,0.002,1225963000.0,39626000.0,1864483000,16.8,2.448,30.83,30.583,29975178000,0.0,77.68,2.931,2.912,1304848000,14414926000,2469701000.0,2469701000.0,43755000.0,,,,,21063000.0,82324000.0,1.0,549171469,545504000,549683000.0,4.527,33884096000,88061000,-16746000.0,6962995000,62.115,1460137000.0
25,EOG,ARQ,2015-03-31,2015-05-04,2015-03-31,2021-08-04,-36434000,34692454000,,4793368000,29899086000,,32.056,-1544481000.0,2127419000,2127419000,1279134000.0,-169748000.0,1.549,0.986,6900269000,506579000.0,6393690000.0,6900269000,0,912788000.0,0,0.006,0.168,-182986000.0,729802000.0,0.315,729802000.0,-182986000.0,-236331000.0,-0.31,-0.31,-0.31,17470498000,,17470498000,59331449557,15.0,7.514,-583934000.0,-1.071,1.0,1039404000.0,0.448,0,53345000.0,36370552000,,764206000,0,0,0,17221956000,3094752000.0,14127204000.0,54558599557,40206000.0,0.0,-11475000.0,987101000.0,-91661000.0,892572000.0,-1804222000.0,0.0,960547000.0,-8691000.0,-169748000.0,-169748000.0,-169748000.0,0.0,0.0,-0.073,1212399000.0,-172995000.0,2182041000,-0.542,3.123,26.17,25.95,29721721000,0.0,99.39,3.353,3.329,1266582000,14501816000,2318538000.0,2318538000.0,39449000.0,,,,,24194000.0,84297000.0,1.0,548934496,544998000,544998000.0,4.254,34692454000,79823000,-66583000.0,6958384000,63.656,1698616000.0
26,EOG,ARQ,2014-12-31,2015-02-18,2014-12-31,2021-08-04,-23056000,34762687000,,5416021000,29346666000,,32.529,-1528595000.0,2087213000,2087213000,1541673000.0,444588000.0,1.6,0.963,5909933000,6579000.0,5903354000.0,5909933000,0,1013930000.0,0,0.006,0.168,1198328000.0,2212258000.0,0.476,2212258000.0,1198328000.0,1148593000.0,0.81,0.81,0.81,17712582000,,17712582000,56095013236,11.0,6.101,581843000.0,1.069,1.0,3103824000.0,0.668,0,49735000.0,35201099000,,706597000,0,0,0,17050105000,3384308000.0,13665797000.0,52272293236,606068000.0,0.0,-2091000.0,-1509000.0,-92025000.0,-83671000.0,-1382448000.0,0.0,2110438000.0,-38251000.0,444588000.0,444588000.0,444588000.0,0.0,0.0,0.096,1877172000.0,1226652000.0,2860548000,0.207,2.951,17.929,17.782,29172644000,0.0,95.31,2.898,2.872,1779311000,14763098000,4645497000.0,4645497000.0,45167000.0,,,,,29818000.0,131285000.0,1.0,548445003,544514000,548953000.0,8.531,34762687000,91239000,704005000.0,7073787000,63.842,2031713000.0
27,EOG,ARQ,2014-09-30,2014-11-04,2014-09-30,2021-08-04,387725000,34500883000,,4884716000,29616167000,,32.574,-2095932000.0,1481145000,1481145000,1886039000.0,1103618000.0,1.446,0.947,5909811000,6579000.0,5903232000.0,5909811000,0,1040018000.0,0,0.006,0.168,1764824000.0,2804842000.0,0.548,2804842000.0,1764824000.0,1715120000.0,2.03,2.01,2.03,17719898000,,17719898000,53902955896,11.0,6.078,240537000.0,0.442,1.0,3232577000.0,0.632,0,49704000.0,35550803000,,672899000,0,0,0,16780985000,3378746000.0,13402239000.0,49474289896,251005000.0,0.0,-23993000.0,-1499000.0,-67986000.0,-69865000.0,-2018553000.0,0.0,2336469000.0,2954000.0,1103618000.0,1103618000.0,1103618000.0,0.0,0.0,0.216,1446415000.0,1786162000.0,2775342000,0.083,2.792,16.215,16.064,29216833000,0.0,90.28,2.887,2.865,2009091000,14410707000,5118616000.0,5118616000.0,48955000.0,,,,,14424000.0,96931000.0,1.0,548009414,543984000,549518000.0,9.409,34500883000,256236000,611502000.0,6674938000,63.423,1505970000.0
28,EOG,ARQ,2014-06-30,2014-08-05,2014-06-30,2021-08-04,426588000,33302434000,,4724745000,28577689000,,30.765,-2170175000.0,1230140000,1230140000,1668580000.0,706353000.0,1.336,0.993,5909678000,6579000.0,5903099000.0,5909678000,0,996602000.0,0,0.004,0.125,1152680000.0,2149282000.0,0.513,2149282000.0,1152680000.0,1100813000.0,1.3,1.29,1.3,16708388000,,16708388000,64149630486,16.0,8.253,-235600000.0,-0.434,1.0,2518976000.0,0.602,0,51867000.0,34444485000,,667108000,0,0,0,16594046000,3537487000.0,13056559000.0,59470092486,-437072000.0,0.0,-51179000.0,-1437000.0,-67904000.0,-84184000.0,-2289004000.0,0.0,1934575000.0,1541000.0,706353000.0,706353000.0,706353000.0,0.0,0.0,0.169,1374246000.0,1144730000.0,2661473000,0.096,3.559,24.677,24.439,28195431000,0.0,108.63,3.822,3.791,1902248000,13398901000,4187556000.0,4187556000.0,42208000.0,,,,,-6758000.0,90932000.0,1.0,547455514,543099000,548676000.0,7.71,33302434000,510034000,394460000.0,6390579000,61.319,1187258000.0
29,EOG,ARQ,2014-03-31,2014-05-06,2014-03-31,2021-08-04,402803000,32141288000,,4822476000,27318812000,,29.567,-1882771000.0,1667212000,1667212000,1612647000.0,660928000.0,1.42,1.005,5909531000,6579000.0,5902952000.0,5909531000,0,946491000.0,0,0.004,0.125,1080941000.0,2027432000.0,0.496,2027432000.0,1080941000.0,1030789000.0,1.22,1.21,1.22,16033314000,,16033314000,60876717748,15.0,7.977,384902000.0,0.71,1.0,2471024000.0,0.605,0,50152000.0,32987965000,,635419000,0,0,0,16107974000,3395642000.0,12712332000.0,56634398748,349003000.0,0.0,-27912000.0,-6196000.0,-51780000.0,-90014000.0,-1823560000.0,0.0,2267673000.0,-5096000.0,660928000.0,660928000.0,660928000.0,0.0,0.0,0.162,1386745000.0,1084279000.0,2647209000,0.102,3.532,23.964,23.741,26998437000,0.0,103.63,3.722,3.694,1801665000,12760895000,4083671000.0,4083671000.0,48058000.0,,,,,8143000.0,82862000.0,1.0,546505826,542278000,548071000.0,7.531,32141288000,429886000,369861000.0,6157702000,59.271,1426834000.0
30,EOG,ARQ,2013-12-31,2014-02-24,2013-12-31,2021-08-04,415834000,30574238000,,4072015000,26502223000,,28.46,-1531872000.0,1318209000,1318209000,1457111000.0,580194000.0,1.423,0.983,5913221000,6579000.0,5906642000.0,5913221000,0,915257000.0,0,0.004,0.094,971592000.0,1886849000.0,0.503,1886849000.0,971592000.0,919082000.0,1.07,1.055,1.07,15418459000,,15418459000,53865782789,15.0,7.406,469358000.0,0.866,1.0,2291912000.0,0.611,0,52510000.0,32307534000,,563268000,0,0,0,15155779000,2861716000.0,12294063000.0,49270770789,-608000.0,0.0,428000.0,-401462000.0,-51447000.0,-446654000.0,-1551435000.0,0.0,2001230000.0,-3749000.0,580194000.0,580194000.0,580194000.0,0.0,0.0,0.155,1311588000.0,980324000.0,2254418000,0.088,3.196,22.425,22.189,26148836000,0.0,90.2,3.401,3.364,1658853000,12168277000,3749023000.0,3749023000.0,30378000.0,,,,,25283000.0,91066000.0,1.0,546239144,541756000,547776000.0,6.92,30574238000,249403000,338888000.0,5681719000,56.435,1210299000.0
31,EOG,ARQ,2013-09-30,2013-11-06,2013-09-30,2021-08-04,425283000,30147270000,,4191967000,25955303000,,27.474,-1914532000.0,1318817000,1318817000,1446389000.0,462498000.0,1.252,1.029,6313073000,406579000.0,5906494000.0,6313073000,0,928800000.0,0,0.004,0.094,780937000.0,1709737000.0,0.483,1709737000.0,780937000.0,721555000.0,0.855,0.845,0.855,14861580000,,14861580000,53212507185,23.0,9.196,97940000.0,0.181,1.0,2095007000.0,0.592,0,59382000.0,31794193000,,566004000,0,0,0,15285690000,3347333000.0,11938357000.0,48218251185,90801000.0,0.0,-25161000.0,-1452000.0,-50725000.0,-49229000.0,-1876713000.0,0.0,2012472000.0,4271000.0,462498000.0,462498000.0,462498000.0,0.0,0.0,0.131,1325238000.0,769769000.0,2247714000,0.11,3.244,43.365,43.188,25599191000,0.0,88.32,3.507,3.475,1849517000,11639302000,3541396000.0,3541396000.0,39429000.0,,,,,17086000.0,98654000.0,1.0,545949402,540942000,547152000.0,6.547,30147270000,169954000,259057000.0,5385560000,55.731,844634000.0
32,EOG,ARQ,2013-06-30,2013-08-06,2013-06-30,2021-08-04,408257000,29077152000,,4240840000,24836312000,,26.637,-1636778000.0,1228016000,1228016000,1520516000.0,659692000.0,1.404,1.021,6312789000,406579000.0,5906210000.0,6312789000,0,910531000.0,0,0.005,0.094,1096877000.0,2007408000.0,0.523,2007408000.0,1096877000.0,1035230000.0,1.22,1.21,1.22,14384626000,,14384626000,46824858606,22.0,8.489,253999000.0,0.47,1.0,2319669000.0,0.604,0,61647000.0,31141622000,,657400000,0,0,0,14692526000,3020303000.0,11672223000.0,41740085606,119982000.0,0.0,2699000.0,-1439000.0,-50786000.0,-39321000.0,-1726891000.0,0.0,1890777000.0,-4583000.0,659692000.0,659692000.0,659692000.0,0.0,0.0,0.172,1227625000.0,1092044000.0,2201940000,0.077,2.902,41.536,41.299,24580388000,0.0,76.61,3.171,3.143,1808954000,11228011000,3840185000.0,3840185000.0,47323000.0,,,,,17092000.0,80607000.0,1.0,544838606,540032000,545478000.0,7.111,29077152000,180462000,375538000.0,5136623000,53.843,1220537000.0
33,EOG,ARQ,2013-03-31,2013-05-06,2013-03-31,2021-08-04,427832000,28232613000,,4081018000,24151595000,,25.535,-1216888000.0,1108034000,1108034000,1366372000.0,494725000.0,1.327,1.052,6312496000,406579000.0,5905917000.0,6312496000,0,846388000.0,0,0.006,0.094,822940000.0,1669328000.0,0.497,1669328000.0,822940000.0,761019000.0,0.92,0.91,0.92,13756309000,,13756309000,39497406420,23.0,7.877,208047000.0,0.386,1.0,1990142000.0,0.593,0,61921000.0,30362384000,,697478000,0,0,0,14476304000,3074691000.0,11401613000.0,34292944420,231599000.0,0.0,-3020000.0,-1427000.0,-46220000.0,-38722000.0,-1159739000.0,0.0,1424935000.0,5125000.0,494725000.0,494725000.0,494725000.0,0.0,0.0,0.147,1157068000.0,833074000.0,2258232000,0.102,2.493,46.28,45.833,23937970000,0.0,63.02,2.803,2.775,1891202000,10619426000,3356514000.0,3356514000.0,44216000.0,,,,,18763000.0,77985000.0,1.0,544159702,538716000,544526000.0,6.231,28232613000,126470000,266294000.0,4788989000,52.407,1006327000.0
34,EOG,ARQ,2012-12-31,2013-02-22,2012-12-31,2021-08-04,439895000,27336578000,,3589884000,23746694000,,24.702,-1454655000.0,876435000,876435000,1312096000.0,-504999000.0,1.228,1.058,6312181000,406579000.0,5905602000.0,6312181000,0,786344000.0,0,0.005,0.085,-386468000.0,399876000.0,0.133,399876000.0,-386468000.0,-445822000.0,-0.95,-0.935,-0.95,13284764000,,13284764000,39496453563,26.0,8.468,-227468000.0,-0.423,1.0,1699715000.0,0.564,0,59354000.0,29848266000,,683187000,0,0,0,14051814000,2924058000.0,11127756000.0,34060707563,-236188000.0,0.0,9380000.0,-1224000.0,-46668000.0,-21084000.0,-1440924000.0,0.0,1227187000.0,-1367000.0,-504999000.0,-504999000.0,-504999000.0,0.0,0.0,-0.168,2077776000.0,-378061000.0,2078948000,-0.089,2.564,59.726,58.845,23337681000,0.0,62.67,2.915,2.871,1656618000,10175631000,3011811000.0,3011811000.0,48660000.0,,,,,8832000.0,86679000.0,1.0,543493020,537800000,544128000.0,5.6,27336578000,29163000,59177000.0,4512317000,50.83,665826000.0
35,EOG,ARQ,2012-09-30,2012-11-05,2012-09-30,2021-08-04,451399000,28032491000,,4000162000,24032329000,,25.74,-1638382000.0,1112623000,1112623000,1201463000.0,355491000.0,1.551,1.032,6305277000,0.0,6305277000.0,6305277000,0,825851000.0,0,0.006,0.085,613343000.0,1439194000.0,0.487,1439194000.0,613343000.0,560189000.0,0.665,0.655,0.665,13793470000,,13793470000,36834263493,17.0,7.008,-202010000.0,-0.377,1.0,1753392000.0,0.593,0,53154000.0,30646762000,,657880000,0,0,0,14239021000,2578383000.0,11660638000.0,31641609493,832249000.0,0.0,4592000.0,1230960000.0,-45520000.0,1217582000.0,-1823782000.0,0.0,1436372000.0,2077000.0,355491000.0,355491000.0,355491000.0,0.0,0.0,0.12,1147645000.0,605747000.0,2151093000,0.128,2.294,26.457,26.132,23686450000,0.0,58.405,2.765,2.735,1579841000,10726811000,2954855000.0,2954855000.0,45953000.0,,,,,18560000.0,92870000.0,1.0,541761998,535882000,541964000.0,5.514,28032491000,175016000,204698000.0,4684672000,52.311,1421779000.0
36,EOG,ARQ,2012-06-30,2012-08-02,2012-06-30,2021-08-04,400086000,25998577000,,2948058000,23050519000,,25.021,-1352896000.0,280374000,280374000,1111936000.0,395778000.0,1.1,0.947,5011893000,0.0,5011893000.0,5011893000,0,808765000.0,0,0.007,0.085,697014000.0,1505779000.0,0.518,1505779000.0,697014000.0,646239000.0,0.74,0.735,0.74,13355141000,,13355141000,30686179646,12.0,5.662,142717000.0,0.267,1.0,1797383000.0,0.618,0,50775000.0,28050156000,,620260000,0,0,0,12643436000,2679940000.0,9963496000.0,25954660646,-13690000.0,0.0,10197000.0,0.0,-45642000.0,-29862000.0,-1479237000.0,0.0,1495613000.0,-204000.0,395778000.0,395778000.0,395778000.0,0.0,0.0,0.136,1105044000.0,692339000.0,2235637000,0.115,1.943,18.789,18.592,22689714000,0.0,48.06,2.282,2.255,1375092000,10417405000,2909319000.0,2909319000.0,48149000.0,,,,,21664000.0,75727000.0,1.0,540047038,533748000,539970000.0,5.451,25998577000,28448000,250461000.0,4423588000,48.709,268118000.0
37,EOG,ARQ,2012-03-31,2012-05-08,2012-03-31,2021-08-04,429451000,25555536000,,3042033000,22513503000,,24.359,-1599407000.0,294064000,294064000,1124397000.0,324009000.0,1.097,0.967,5010523000,0.0,5010523000.0,5010523000,0,748743000.0,0,0.006,0.085,570403000.0,1319146000.0,0.47,1319146000.0,570403000.0,520134000.0,0.61,0.6,0.61,12991843000,,12991843000,32751568489,14.0,6.408,-521802000.0,-0.978,1.0,1682254000.0,0.599,0,50269000.0,27499648000,,561512000,0,0,0,12563693000,2772347000.0,9791346000.0,28035109489,-321662000.0,0.0,126000.0,0.0,-43250000.0,-26885000.0,-1375320000.0,0.0,1077605000.0,2938000.0,324009000.0,324009000.0,324009000.0,0.0,0.0,0.115,1122482000.0,559772000.0,2289903000,0.139,2.158,21.883,21.665,22133841000,0.0,51.995,2.54,2.513,1543491000,10067541000,2806651000.0,2806651000.0,42807000.0,,,,,11687000.0,76269000.0,1.0,539188566,533348000,540484000.0,5.262,25555536000,24593000,196125000.0,4236631000,47.915,269686000.0
38,EOG,ARQ,2011-12-31,2012-02-24,2011-12-30,2021-08-04,401746000,24838797000,,3253938000,21584859000,,23.766,-1644655000.0,615726000,615726000,1059259000.0,120698000.0,1.29,0.965,5009166000,0.0,5009166000.0,5009166000,0,693527000.0,0,0.005,0.08,298223000.0,991750000.0,0.358,991750000.0,298223000.0,241632000.0,0.22,0.22,0.22,12640904000,,12640904000,36024453103,17.0,7.77,-407768000.0,-0.767,1.0,1713756000.0,0.618,0,56591000.0,26709918000,,590594000,0,0,0,12197893000,2522319000.0,9675574000.0,31631013103,-771002000.0,0.0,6456000.0,-224787000.0,-43036000.0,-261413000.0,-1748410000.0,0.0,1236887000.0,1934000.0,120698000.0,120698000.0,120698000.0,0.0,0.0,0.044,1411181000.0,302575000.0,2033615000,0.364,2.502,28.989,28.325,21288824000,0.0,58.775,3.124,3.05,1451227000,9789345000,2773015000.0,2773015000.0,31042000.0,,,,,33288000.0,85108000.0,1.0,538171214,531896000,538674000.0,5.213,24838797000,26609000,120934000.0,4150313000,46.699,731619000.0
39,EOG,ARQ,2011-09-30,2011-11-01,2011-09-30,2021-08-04,372448000,24794678000,,3735362000,21059316000,,23.48,-1354794000.0,1386728000,1386728000,971344000.0,540878000.0,1.401,0.985,5227746000,220000000.0,5007746000.0,5227746000,0,651684000.0,0,0.007,0.08,951407000.0,1603091000.0,0.556,1603091000.0,951407000.0,899221000.0,1.015,1.005,1.015,12493848000,,12493848000,26929922815,13.0,6.163,-82511000.0,-0.155,1.0,1914400000.0,0.663,0,52186000.0,25969373000,,580355000,0,0,0,12300830000,2666323000.0,9634507000.0,23088904815,-190710000.0,0.0,-2353000.0,0.0,-42571000.0,-44851000.0,-1411454000.0,0.0,1272283000.0,-6688000.0,540878000.0,540878000.0,540878000.0,0.0,0.0,0.187,964370000.0,950030000.0,1926455000,0.079,1.848,22.546,22.191,20736198000,0.0,42.94,2.526,2.499,1249649000,9711207000,2885744000.0,2885744000.0,48469000.0,,,,,41630000.0,82260000.0,1.0,537701556,532106000,538584000.0,5.423,24794678000,28013000,358343000.0,4155186000,46.597,1069039000.0
40,EOG,ARQ,2011-06-30,2011-08-04,2011-06-30,2021-08-04,492880000,23959379000,,3637950000,20321429000,,22.716,-1090685000.0,1577438000,1577438000,807489000.0,295574000.0,1.469,0.984,5226251000,220000000.0,5006251000.0,5226251000,0,602944000.0,0,0.007,0.08,594477000.0,1197421000.0,0.466,1197421000.0,594477000.0,543224000.0,0.555,0.55,0.555,12077185000,,12077185000,28397626355,27.0,8.707,21067000.0,0.04,1.0,1762761000.0,0.686,0,51253000.0,25131954000,,540094000,0,0,0,11882194000,2476238000.0,9405956000.0,24748813355,-90847000.0,0.0,5560000.0,0.0,-42559000.0,-35008000.0,-1167331000.0,0.0,1111752000.0,-260000.0,295574000.0,295574000.0,295574000.0,0.0,0.0,0.115,1174508000.0,588253000.0,1870172000,0.144,2.049,60.024,59.058,19996823000,0.0,46.065,3.157,3.124,1279740000,9213356000,2570250000.0,2570250000.0,41238000.0,,,,,25997000.0,67406000.0,1.0,537258512,531660000,538664000.0,4.834,23959379000,27694000,247650000.0,3879834000,45.065,1161712000.0
41,EOG,ARQ,2011-03-31,2011-05-06,2011-03-31,2021-08-04,485464000,23545522000,,3597603000,19947919000,,23.096,-1427541000.0,1668285000,1668285000,740278000.0,133973000.0,1.439,0.997,5224725000,220000000.0,5004725000.0,5224725000,0,568226000.0,0,0.006,0.08,276055000.0,844281000.0,0.445,844281000.0,276055000.0,225722000.0,0.26,0.26,0.26,11788379000,,11788379000,32397102524,55.0,12.137,-470053000.0,-0.921,1.0,1156828000.0,0.61,0,50333000.0,24601771000,,481826000,0,0,0,11757143000,2500191000.0,9256952000.0,28840662524,879432000.0,0.0,1390593000.0,0.0,-39003000.0,1349811000.0,-1427747000.0,0.0,957488000.0,-120000.0,133973000.0,133973000.0,133973000.0,0.0,0.0,0.071,884377000.0,272451000.0,1838959000,0.308,2.447,163.3,155.71,19641452000,0.0,53.72,4.352,4.138,1228549000,8963475000,1897106000.0,1897106000.0,50909000.0,,,,,27430000.0,70037000.0,1.0,536870114,510400000,517638000.0,3.717,23545522000,58618000,91749000.0,3716314000,46.132,1097412000.0
42,EOG,ARQ,2010-12-31,2011-02-24,2010-12-31,2021-08-04,440071000,21624233000,,2527446000,19096787000,,20.354,-1071205000.0,788853000,788853000,628927000.0,53673000.0,1.138,1.113,5223341000,220000000.0,5003341000.0,5223341000,0,543789000.0,0,0.006,0.077,180944000.0,724733000.0,0.405,724733000.0,180944000.0,139573000.0,0.105,0.105,0.105,10231632000,,10231632000,32448437049,60.0,13.087,-448330000.0,-0.892,1.0,1160233000.0,0.648,0,41371000.0,23838622000,,415792000,0,0,0,11392601000,2220099000.0,9172502000.0,28013949049,761021000.0,-210000000.0,9036000.0,1451733000.0,-38963000.0,1421692000.0,-1277530000.0,0.0,622875000.0,-6016000.0,53673000.0,53673000.0,53673000.0,0.0,0.0,0.03,985622000.0,174611000.0,1664944000,0.733,2.738,174.374,172.141,18680900000,0.0,55.085,4.593,4.531,1113279000,8870179000,1789160000.0,1789160000.0,38746000.0,,,,,25678000.0,74004000.0,1.0,508558574,502694000,509336000.0,3.559,21624233000,64176000,85900000.0,3625577000,43.017,307347000.0
43,EOG,ARQ,2010-09-30,2010-11-02,2010-09-30,2021-08-04,375847000,19944859000,,1534445000,18410414000,,20.154,-1475592000.0,27832000,27832000,537113000.0,-70906000.0,0.792,0.971,3768638000,0.0,3768638000.0,3768638000,0,500888000.0,0,0.006,0.077,-5923000.0,494965000.0,0.313,494965000.0,-5923000.0,-38813000.0,-0.14,-0.14,-0.14,10118124000,,10118124000,28568304916,28.0,10.177,-691205000.0,-1.377,1.0,1044962000.0,0.661,0,32890000.0,21747365000,,381263000,0,0,0,9826735000,1938300000.0,7888435000.0,24827498916,-622282000.0,0.0,513000.0,28425000.0,-39098000.0,-10291000.0,-1394788000.0,0.0,784387000.0,-1590000.0,-70906000.0,-70906000.0,-70906000.0,0.0,0.0,-0.045,1056657000.0,-11695000.0,1541268000,-0.55,2.454,48.93,47.912,18249810000,0.0,48.87,4.089,4.041,897732000,8855869000,1582075000.0,1582075000.0,47307000.0,,,,,36747000.0,81310000.0,1.0,508031490,502030000,502030000.0,3.151,19944859000,89357000,32093000.0,3584072000,39.728,-403855000.0
44,EOG,ARQ,2010-06-30,2010-08-05,2010-06-30,2021-08-04,314631000,19465683000,,1916143000,17549540000,,20.195,-1240885000.0,650114000,650114000,478830000.0,59872000.0,1.23,0.921,3734067000,0.0,3734067000.0,3734067000,0,465343000.0,0,0.006,0.077,139956000.0,605299000.0,0.446,605299000.0,139956000.0,110059000.0,0.12,0.12,0.12,10131019000,,10131019000,29049254872,28.0,10.631,-559832000.0,-1.116,1.0,879138000.0,0.647,0,29897000.0,20991499000,,306563000,0,0,0,9334664000,1558137000.0,7776527000.0,25965301872,420030000.0,0.0,13786000.0,953201000.0,-38890000.0,928107000.0,-1190778000.0,0.0,681053000.0,1648000.0,59872000.0,59872000.0,59872000.0,0.0,0.0,0.044,738637000.0,140501000.0,1255657000,0.642,2.563,44.575,43.778,17424318000,0.0,51.22,4.724,4.675,810145000,8966181000,1357968000.0,1357968000.0,50131000.0,,,,,22459000.0,64737000.0,1.0,506936780,501650000,509006000.0,2.707,19465683000,31853000,50187000.0,3523657000,38.803,358006000.0
45,EOG,ARQ,2010-03-31,2010-05-04,2010-03-31,2021-08-04,405234000,18509068000,,1545857000,16963211000,,20.3,-1121107000.0,230084000,230084000,462205000.0,118015000.0,1.035,0.821,2797000000,37000000.0,2760000000.0,2797000000,0,431906000.0,0,0.005,0.077,222585000.0,654491000.0,0.477,654491000.0,222585000.0,197157000.0,0.235,0.23,0.235,10164917000,,10164917000,30474462152,33.0,12.17,-500820000.0,-1.0,1.0,908488000.0,0.663,0,25428000.0,19582975000,,313067000,0,0,0,8344151000,1493009000.0,6851142000.0,27907546152,-455667000.0,0.0,-70000.0,0.0,-36289000.0,-36089000.0,-1039678000.0,0.0,620287000.0,-187000.0,118015000.0,118015000.0,118015000.0,0.0,0.0,0.086,688586000.0,219902000.0,1134286000,0.328,2.745,55.161,54.305,16816935000,0.0,55.12,5.582,5.521,869042000,8945648000,1370693000.0,1370693000.0,51197000.0,,,,,22494000.0,60423000.0,1.0,506305264,500740000,507738000.0,2.737,18509068000,47363000,79142000.0,3566737000,36.963,52848000.0
46,EOG,ARQ,2009-12-31,2010-02-25,2009-12-31,2021-08-04,339720000,18118667000,,1839541000,16279126000,,19.993,-785026000.0,685751000,685751000,418713000.0,400427000.0,1.367,0.812,2797000000,37000000.0,2760000000.0,2797000000,0,398937000.0,0,0.006,0.072,653542000.0,1052479000.0,0.598,1052479000.0,653542000.0,626235000.0,0.805,0.795,0.805,9998042000,,9998042000,25656575101,26.0,10.173,43737000.0,0.087,1.0,1342149000.0,0.762,0,27307000.0,18884356000,,261723000,0,0,0,8120625000,1345560000.0,6775065000.0,23545326101,77240000.0,0.0,5676000.0,-8000.0,-36271000.0,11497000.0,-763190000.0,0.0,828763000.0,170000.0,400427000.0,400427000.0,400427000.0,0.0,0.0,0.227,688041000.0,654108000.0,979139000,0.089,2.355,43.074,42.373,16139225000,0.0,46.61,4.919,4.849,771417000,8866747000,1760862000.0,1760862000.0,40752000.0,,,,,-55486000.0,68793000.0,1.0,505156106,500086000,507344000.0,3.521,18118667000,37009000,225808000.0,3510685000,36.231,493981000.0
47,EOG,ARQ,2009-09-30,2009-11-05,2009-09-30,2021-08-04,291627000,17221293000,,1831689000,15389604000,,19.071,-921375000.0,608511000,608511000,361304000.0,4196000.0,1.525,0.809,2797000000,37000000.0,2760000000.0,2797000000,0,385330000.0,0,0.006,0.072,34964000.0,420294000.0,0.417,420294000.0,34964000.0,4557000.0,0.01,0.01,0.01,9517740000,,9517740000,24403332925,23.0,9.418,-104917000.0,-0.21,1.0,645545000.0,0.641,0,30407000.0,18208631000,,240230000,0,0,0,7703553000,1201151000.0,6502402000.0,22214843925,-98453000.0,0.0,1902000.0,-146000.0,-36473000.0,-22771000.0,-899036000.0,0.0,816458000.0,6896000.0,4196000.0,4196000.0,4196000.0,0.0,0.0,0.004,610242000.0,35303000.0,783764000,7.2,2.334,36.557,35.931,15252555000,0.0,44.015,4.628,4.576,604260000,8502940000,1006849000.0,1006849000.0,44910000.0,,,,,26053000.0,62775000.0,1.0,504710756,499070000,504844000.0,2.017,17221293000,27134000,361000.0,3333890000,34.507,630538000.0
48,EOG,ARQ,2009-06-30,2009-08-06,2009-06-30,2021-08-04,130503000,16792752000,,2210276000,14582476000,,18.653,-697459000.0,706964000,706964000,321824000.0,-16706000.0,1.858,0.814,2797000000,37000000.0,2760000000.0,2797000000,0,375592000.0,0,0.007,0.072,1255000.0,376847000.0,0.438,376847000.0,1255000.0,-23556000.0,-0.035,-0.035,-0.035,9259522000,,9259522000,21796139362,6.0,4.427,-26080000.0,-0.053,1.0,539215000.0,0.626,0,24811000.0,17693168000,,243614000,0,0,0,7533230000,1189620000.0,6343610000.0,19706103362,621750000.0,0.0,5653000.0,683159000.0,-36025000.0,669957000.0,-727198000.0,0.0,671379000.0,7612000.0,-16706000.0,-16706000.0,-16706000.0,0.0,0.0,-0.019,539197000.0,18000.0,720053000,-2.057,2.128,9.124,8.96,14445679000,0.0,39.11,2.81,2.768,570262000,8535559000,861039000.0,861039000.0,34307000.0,,,,,22072000.0,58760000.0,1.0,503863548,496414000,496414000.0,1.735,16792752000,19078000,-6850000.0,3325154000,33.828,1020656000.0
49,EOG,ARQ,2009-03-31,2009-05-04,2009-03-31,2021-08-04,-21694000,15983709000,,1809739000,14173970000,,18.379,-887149000.0,85214000,85214000,267028000.0,158710000.0,1.41,0.753,2105100000,0.0,2105100000.0,2105100000,0,389329000.0,0,0.007,0.072,283151000.0,672480000.0,0.581,672480000.0,283151000.0,264775000.0,0.32,0.315,0.32,9115537000,,9115537000,20049965421,5.0,3.918,-281310000.0,-0.567,1.0,891181000.0,0.769,0,18376000.0,16720298000,,242627000,0,0,0,6868172000,1283297000.0,5584875000.0,18030079421,-246097000.0,0.0,-3752000.0,208100000.0,-33491000.0,175479000.0,-1025127000.0,0.0,605839000.0,-2288000.0,158710000.0,158710000.0,158710000.0,0.0,0.0,0.137,609769000.0,281412000.0,774434000,0.225,1.978,7.657,7.567,14006530000,0.0,36.02,2.51,2.487,558119000,8588650000,1158209000.0,1158209000.0,49623000.0,,,,,26407000.0,57946000.0,1.0,500557452,495982000,500408000.0,2.335,15983709000,12021000,106065000.0,3340966000,32.226,526442000.0
50,EOG,ARQ,2008-12-31,2009-02-25,2008-12-31,2021-08-04,27787000,15951226000,,2108451000,13842775000,,18.202,-1328539000.0,331311000,331311000,427888000.0,461472000.0,1.195,0.77,1897000000,37000000.0,1860000000.0,1897000000,0,368135000.0,0,0.01,0.068,753435000.0,1121570000.0,0.632,1121570000.0,753435000.0,735092000.0,0.93,0.92,0.93,9014497000,,9014497000,14557064591,4.0,2.84,-294976000.0,-0.596,1.0,1346250000.0,0.759,0,18343000.0,15751999000,,187970000,0,0,0,6936729000,1764916000.0,5171813000.0,12991375591,-554666000.0,0.0,-1410000.0,-881000.0,-33751000.0,-99427000.0,-1467328000.0,0.0,1033563000.0,-21474000.0,461472000.0,461472000.0,461472000.0,0.0,0.0,0.26,595071000.0,751179000.0,1122209000,0.073,1.441,5.332,5.266,13657302000,0.0,26.015,1.823,1.801,722695000,8466143000,1774138000.0,1774138000.0,48489000.0,,,,,21149000.0,58249000.0,1.0,499380188,495238000,499746000.0,3.582,15951226000,27053000,273620000.0,3268018000,32.209,343535000.0
51,EOG,ARQ,2008-09-30,2008-11-03,2008-09-30,2021-08-04,314982000,15832730000,,2476517000,13356213000,,18.045,-1496664000.0,885977000,885977000,242327000.0,1556285000.0,1.351,0.775,1897000000,37000000.0,1860000000.0,1897000000,0,346247000.0,0,0.006,0.068,2406047000.0,2752294000.0,0.855,2752294000.0,2406047000.0,2393952000.0,3.15,3.1,3.15,8919960000,,8919960000,19924244884,6.0,4.14,40401000.0,0.082,1.0,2977179000.0,0.925,0,12095000.0,15010673000,,146571000,0,0,0,6912770000,1833080000.0,5079690000.0,18913221884,777876000.0,0.0,14504000.0,743296000.0,-29806000.0,742251000.0,-1492700000.0,0.0,1537065000.0,-8740000.0,1556285000.0,1556285000.0,1556285000.0,0.0,0.0,0.483,584996000.0,2392183000.0,1340822000,0.022,2.12,8.107,8.002,13132370000,0.0,37.89,2.864,2.836,1048385000,8038477000,3219506000.0,3219506000.0,37943000.0,,,,,31778000.0,70893000.0,1.0,499161306,494310000,501860000.0,6.513,15832730000,8789000,837667000.0,3044056000,32.03,643437000.0
52,EOG,ARQ,2008-06-30,2008-07-29,2008-06-30,2021-08-04,403195000,14224767000,,2088097000,12136670000,,15.061,-1185976000.0,108101000,108101000,208758000.0,178206000.0,0.854,0.915,1147000000,0.0,1147000000.0,1147000000,0,315294000.0,0,0.004,0.06,256412000.0,571706000.0,0.554,571706000.0,256412000.0,247383000.0,0.36,0.355,0.36,7426171000,,7426171000,25921633025,17.0,9.706,-44932000.0,-0.091,1.0,823768000.0,0.798,0,9029000.0,12818626000,,109971000,0,0,0,6798596000,2445040000.0,4353556000.0,24882734025,-96837000.0,0.0,12107000.0,-38000000.0,-29558000.0,-34826000.0,-1199772000.0,0.0,1141044000.0,-3283000.0,178206000.0,178206000.0,178206000.0,0.0,0.0,0.173,580665000.0,243103000.0,1379602000,0.167,3.351,25.413,25.003,11988720000,0.0,50.005,5.688,5.636,1228560000,6515795000,1032526000.0,1032526000.0,59511000.0,,,,,24783000.0,61640000.0,1.0,497604920,493072000,502270000.0,2.094,14224767000,587370000,69177000.0,2743776000,28.849,-356943000.0
53,EOG,ARQ,2008-03-31,2008-05-08,2008-03-31,2021-08-04,388848000,12950559000,,1690246000,11260313000,,14.649,-800733000.0,204938000,204938000,202861000.0,240956000.0,0.98,0.801,1185000000,0.0,1185000000.0,1185000000,0,297199000.0,0,0.003,0.06,382303000.0,679502000.0,0.617,679502000.0,382303000.0,370112000.0,0.49,0.48,0.49,7190521000,,7190521000,35690928004,21.0,12.588,120844000.0,0.246,1.0,898112000.0,0.816,0,12191000.0,12205703000,,98565000,0,0,0,5760038000,1724918000.0,4035120000.0,34710866004,150707000.0,0.0,29537000.0,0.0,-22089000.0,37107000.0,-806718000.0,0.0,921577000.0,-1259000.0,240956000.0,240513000.0,240513000.0,0.0,0.0,0.218,517392000.0,380720000.0,1208751000,0.122,4.827,31.356,30.791,11144551000,443000.0,69.895,7.893,7.802,1010020000,6367524000,1100973000.0,1100973000.0,47943000.0,,,,,19783000.0,52926000.0,1.0,496614436,490860000,499526000.0,2.243,12950559000,324069000,129156000.0,2511932000,26.383,-34672000.0
54,EOG,ARQ,2007-12-31,2008-02-28,2007-12-31,2021-08-04,466702000,12088907000,,1292039000,10796868000,,14.297,-997868000.0,54231000,54231000,219777000.0,361195000.0,0.876,0.729,1185000000,0.0,1185000000.0,1185000000,0,282234000.0,0,0.003,0.045,526831000.0,809065000.0,0.647,809065000.0,526831000.0,511080000.0,0.735,0.72,0.735,6990094000,,6990094000,31941472319,19.0,11.644,-250451000.0,-0.512,1.0,1031027000.0,0.824,0,15751000.0,11745506000,,102322000,0,0,0,5098813000,1474170000.0,3624643000.0,30810703319,-247713000.0,0.0,22573000.0,-98896000.0,-22767000.0,-129789000.0,-863203000.0,0.0,747417000.0,-2138000.0,361195000.0,358034000.0,358034000.0,0.0,0.0,0.286,511210000.0,519817000.0,1152140000,0.061,4.408,28.443,28.029,10429254000,3161000.0,62.365,7.352,7.246,835670000,6156721000,1250804000.0,1250804000.0,44005000.0,,,,,20521000.0,66047000.0,1.0,494038376,488912000,497446000.0,2.558,12088907000,143903000,149885000.0,2284934000,24.726,-182131000.0
55,EOG,ARQ,2007-09-30,2007-10-29,2007-09-30,2021-08-04,450500000,11467707000,,1310225000,10157482000,,13.609,-887404000.0,301944000,301944000,210350000.0,204003000.0,0.977,0.73,1283442000,98442000.0,1185000000.0,1283442000,0,279189000.0,0,0.004,0.045,331169000.0,610358000.0,0.616,610358000.0,331169000.0,318598000.0,0.415,0.41,0.415,6627148000,,6627148000,21278243793,14.0,8.428,-163144000.0,-0.335,1.0,780113000.0,0.788,0,12571000.0,11107652000,,109838000,0,0,0,4840559000,1341553000.0,3499006000.0,20296745793,243410000.0,0.0,18658000.0,394848000.0,-22883000.0,386465000.0,-870374000.0,0.0,724260000.0,3059000.0,204003000.0,202366000.0,202366000.0,0.0,0.0,0.204,455255000.0,324858000.0,964515000,0.108,3.063,21.089,20.836,10034206000,1637000.0,41.255,5.267,5.214,678762000,5820884000,990463000.0,990463000.0,38840000.0,,,,,17190000.0,48101000.0,1.0,491982688,486972000,494850000.0,2.034,11467707000,92569000,114595000.0,2147692000,23.549,-31328000.0
56,EOG,ARQ,2007-06-30,2007-08-02,2007-06-30,2021-08-04,328918000,10524264000,,1063768000,9460496000,,12.936,-845498000.0,58534000,58534000,176595000.0,307053000.0,0.918,0.672,883842000,0.0,883842000.0,883842000,0,259780000.0,0,0.004,0.045,476687000.0,736467000.0,0.698,736467000.0,476687000.0,465869000.0,0.63,0.62,0.63,6292589000,,6292589000,18730997816,11.0,7.187,-122290000.0,-0.251,1.0,878648000.0,0.833,0,10818000.0,10191040000,,116300000,0,0,0,4231675000,1158532000.0,3073143000.0,17905689816,-83166000.0,0.0,8813000.0,63800000.0,-22848000.0,53549000.0,-863986000.0,0.0,723208000.0,4063000.0,307053000.0,306063000.0,306063000.0,0.0,0.0,0.29,431030000.0,447618000.0,925829000,0.071,2.846,16.935,16.775,9339856000,990000.0,36.57,4.674,4.643,741907000,5640660000,1055243000.0,1055243000.0,41216000.0,,,,,15331000.0,47183000.0,1.0,489627832,486454000,494522000.0,2.169,10524264000,39671000,158816000.0,2017447000,21.635,-94764000.0
57,EOG,ARQ,2007-03-31,2007-04-30,2007-03-31,2021-08-04,194628000,9826854000,,1128106000,8698748000,,12.04,-864997000.0,141700000,141700000,158883000.0,217667000.0,1.027,0.681,820042000,0.0,820042000.0,820042000,0,244342000.0,0,0.004,0.045,342959000.0,587301000.0,0.671,587301000.0,342959000.0,335321000.0,0.445,0.44,0.445,5845664000,,5845664000,18641475178,11.0,7.34,-166517000.0,-0.343,1.0,716330000.0,0.818,0,7638000.0,9406650000,,122461000,0,0,0,3981190000,1098546000.0,2882644000.0,17963133178,-76555000.0,0.0,5276000.0,86600000.0,-15522000.0,83498000.0,-858211000.0,0.0,698480000.0,-322000.0,217667000.0,216792000.0,216792000.0,0.0,0.0,0.248,379295000.0,337035000.0,924644000,0.101,3.073,16.62,16.466,8580838000,875000.0,36.72,4.861,4.825,734231000,5356647000,875213000.0,875213000.0,26384000.0,,,,,14211000.0,43879000.0,1.0,489192080,485526000,493354000.0,1.803,9826854000,51969000,117654000.0,1848765000,20.24,29560000.0
58,EOG,ARQ,2006-12-31,2007-02-28,2006-12-31,2021-08-04,176704000,9402160000,,1350080000,8052080000,,11.547,-861635000.0,218255000,218255000,171935000.0,242625000.0,1.076,0.679,733442000,0.0,733442000.0,733442000,0,230438000.0,0,0.004,0.03,360039000.0,590477000.0,0.633,590477000.0,360039000.0,352520000.0,0.49,0.48,0.49,5599671000,,5599671000,17043621613,9.0,6.147,-262630000.0,-0.542,1.0,760608000.0,0.816,0,7519000.0,8662335000,,113591000,0,0,0,3802489000,1255012000.0,2547477000.0,16528434613,-377676000.0,0.0,6749000.0,-96075000.0,-16428000.0,-155292000.0,-818399000.0,0.0,599005000.0,-2990000.0,242625000.0,237204000.0,237204000.0,0.0,0.0,0.254,410232000.0,350376000.0,896572000,0.061,2.952,12.824,12.709,7944047000,5421000.0,33.87,4.233,4.195,754134000,5151034000,932543000.0,932543000.0,45129000.0,,,,,11468000.0,47721000.0,1.0,487996298,484956000,492860000.0,1.923,9402160000,94311000,109895000.0,1788727000,19.388,95068000.0
59,EOG,ARQ,2006-09-30,2006-11-01,2006-09-30,2021-08-04,241640000,9165016000,,1583001000,7582015000,,11.315,-762180000.0,595931000,595931000,136681000.0,299136000.0,1.257,0.674,829517000,124075000.0,705442000.0,829517000,0,216071000.0,0,0.003,0.03,476098000.0,692169000.0,0.715,692169000.0,476098000.0,465996000.0,0.615,0.605,0.615,5474233000,,5474233000,16307585851,7.0,5.214,-159064000.0,-0.329,1.0,831567000.0,0.859,0,10102000.0,8139634000,,117385000,0,0,0,3690783000,1258968000.0,2431815000.0,16073999851,-163177000.0,0.0,18141000.0,-63000000.0,-16303000.0,-55098000.0,-712086000.0,0.0,603116000.0,891000.0,299136000.0,297278000.0,297278000.0,0.0,0.0,0.307,369779000.0,461788000.0,794588000,0.049,2.936,10.621,10.53,7454176000,1858000.0,33.01,3.84,3.816,656523000,4928453000,968248000.0,968248000.0,35174000.0,,,,,18789000.0,42362000.0,1.0,486943346,483822000,492272000.0,2.001,9165016000,0,166860000.0,1682353000,18.943,324033000.0
60,EOG,ARQ,2006-06-30,2006-08-01,2006-06-30,2021-08-04,242827000,8642157000,,1598710000,7043447000,,10.654,-589067000.0,759108000,759108000,127868000.0,331417000.0,1.477,0.679,892517000,124075000.0,768442000.0,892517000,0,192928000.0,0,0.003,0.03,476678000.0,669606000.0,0.729,669606000.0,476678000.0,464294000.0,0.68,0.67,0.68,5148396000,,5148396000,17463021585,7.0,5.575,598000.0,0.001,1.0,791220000.0,0.861,0,12384000.0,7693049000,,98430000,0,0,0,3493761000,1082517000.0,2411244000.0,17329612585,-62219000.0,0.0,5014000.0,-40225000.0,-16280000.0,-37940000.0,-621616000.0,0.0,589665000.0,7672000.0,331417000.0,329559000.0,329559000.0,0.0,0.0,0.359,336386000.0,454834000.0,680575000,0.044,3.366,11.122,11.04,6934017000,1858000.0,35.715,4.174,4.157,597564000,4645763000,919088000.0,919088000.0,35313000.0,,,,,10615000.0,38607000.0,1.0,485219448,483226000,491774000.0,1.902,8642157000,0,132877000.0,1561217000,17.884,516193000.0
61,EOG,ARQ,2006-03-31,2006-05-04,2006-03-31,2021-08-04,175743000,8243390000,,1664758000,6578632000,,9.836,-586307000.0,821327000,821327000,126306000.0,426707000.0,1.559,0.738,932742000,124075000.0,808667000.0,932742000,0,177652000.0,0,0.003,0.03,642984000.0,820636000.0,0.757,820636000.0,642984000.0,629831000.0,0.88,0.865,0.88,4743360000,,4743360000,17443811159,7.0,5.769,200460000.0,0.416,1.0,958230000.0,0.884,0,13153000.0,7287280000,,76638000,0,0,0,3500030000,1067525000.0,2432505000.0,17332396159,177516000.0,0.0,6129000.0,-52325000.0,-11432000.0,-50552000.0,-558272000.0,0.0,786767000.0,-427000.0,426707000.0,424849000.0,424849000.0,0.0,0.0,0.392,329802000.0,628428000.0,673914000,0.034,3.654,11.742,11.618,6472821000,1858000.0,35.725,4.315,4.289,627667000,4330772000,1084536000.0,1084536000.0,39392000.0,,,,,9003000.0,36291000.0,1.0,485161544,482236000,491846000.0,2.249,8243390000,0,203124000.0,1539576000,17.094,597233000.0
62,EOG,ARQ,2005-12-31,2006-02-23,2005-12-31,2021-08-04,177137000,7753320000,,1563238000,6190082000,,8.98,-487051000.0,643811000,643811000,120182000.0,463656000.0,1.334,0.796,985067000,126075000.0,858992000.0,985067000,0,176974000.0,0,0.002,0.02,768205000.0,945179000.0,0.779,945179000.0,768205000.0,748220000.0,0.96,0.94,0.96,4316292000,,4316292000,17283200551,9.0,6.444,378163000.0,0.787,1.0,1093506000.0,0.901,0,19985000.0,6922535000,,63215000,0,0,0,3437028000,1172041000.0,2264987000.0,16941944551,302750000.0,0.0,8231000.0,-57705000.0,-11411000.0,-60860000.0,-499969000.0,0.0,865214000.0,-1635000.0,463656000.0,461797000.0,461797000.0,0.0,0.0,0.38,338631000.0,754875000.0,679548000,0.021,3.925,13.53,13.33,6087179000,1859000.0,34.925,4.68,4.607,762207000,3920483000,1213688000.0,1213688000.0,38283000.0,,,,,10533000.0,37039000.0,1.0,485095048,480630000,490620000.0,2.525,7753320000,24376000,284564000.0,1428149000,16.132,391197000.0
63,EOG,ARQ,2005-09-30,2005-11-01,2005-09-30,2021-08-04,188864000,7026553000,,1144012000,5882541000,,8.046,-435956000.0,341061000,341061000,111140000.0,343761000.0,1.479,0.824,1042772000,0.0,1042772000.0,1042772000,0,164372000.0,0,0.002,0.02,532315000.0,696687000.0,0.746,696687000.0,532315000.0,518438000.0,0.715,0.7,0.715,3851455000,,3851455000,17112298073,11.0,7.797,82851000.0,0.173,1.0,823305000.0,0.881,0,13877000.0,6955006000,,54887000,0,0,0,3175098000,773258000.0,2401840000.0,16410587073,58360000.0,0.0,32065000.0,-74325000.0,-11355000.0,-55185000.0,-411309000.0,0.0,518807000.0,6047000.0,343761000.0,341904000.0,341904000.0,0.0,0.0,0.366,301149000.0,522156000.0,508815000,0.028,4.261,16.502,16.236,5780413000,1857000.0,33.965,5.293,5.244,631320000,3468406000,934445000.0,934445000.0,32023000.0,,,,,22038000.0,30079000.0,1.0,483161698,478688000,489800000.0,1.952,7026553000,28134000,174677000.0,1290693000,14.679,370754000.0
64,EOG,ARQ,2005-06-30,2005-07-29,2005-06-30,2021-08-04,124685000,6427657000,,866505000,5561152000,,7.134,-386761000.0,282701000,282701000,109388000.0,249456000.0,1.433,0.891,1117097000,0.0,1117097000.0,1117097000,0,159896000.0,0,0.002,0.02,401563000.0,561459000.0,0.716,561459000.0,401563000.0,386876000.0,0.52,0.51,0.52,3399422000,,3399422000,15504602966,12.0,8.132,116805000.0,0.245,1.0,674536000.0,0.86,0,14687000.0,6657281000,,52188000,0,0,0,3028235000,604772000.0,2423463000.0,14670206966,109316000.0,0.0,10108000.0,-2700000.0,-11340000.0,-3775000.0,-389757000.0,0.0,503566000.0,-718000.0,249456000.0,247598000.0,247598000.0,0.0,0.0,0.316,279847000.0,394689000.0,439532000,0.038,4.316,17.844,17.588,5455037000,1858000.0,30.55,5.315,5.274,450606000,3136135000,783924000.0,783924000.0,27994000.0,,,,,8961000.0,30113000.0,1.0,480203174,476504000,486828000.0,1.645,6427657000,26644000,137420000.0,1175638000,13.489,261733000.0
65,EOG,ARQ,2005-03-31,2005-04-27,2005-03-31,2021-08-04,140741000,6117028000,,732066000,5384962000,,6.645,-344008000.0,173385000,173385000,97457000.0,202703000.0,1.301,0.94,1119797000,0.0,1119797000.0,1119797000,0,153016000.0,0,0.003,0.02,325560000.0,478576000.0,0.695,478576000.0,325560000.0,311603000.0,0.425,0.415,0.425,3153642000,,3153642000,12377746182,11.0,7.326,137831000.0,0.29,1.0,590699000.0,0.858,0,13957000.0,6500653000,,48741000,0,0,0,2963386000,562787000.0,2400599000.0,11431334182,152405000.0,0.0,14264000.0,42175000.0,-8880000.0,47510000.0,-377073000.0,0.0,481839000.0,129000.0,202703000.0,200845000.0,200845000.0,0.0,0.0,0.292,270604000.0,320095000.0,400802000,0.047,3.625,15.95,15.696,5287208000,1858000.0,23.89,4.582,4.544,441157000,2898126000,688156000.0,688156000.0,34816000.0,,,,,9348000.0,28687000.0,1.0,478498710,474586000,484228000.0,1.45,6117028000,25788000,108900000.0,1140009000,12.889,169279000.0
66,EOG,ARQ,2004-12-31,2005-02-25,2004-12-31,2021-08-04,148015000,5798923000,,586803000,5212120000,,6.238,-524531000.0,20980000,20980000,114047000.0,206755000.0,0.928,0.969,1077622000,0.0,1077622000.0,1077622000,0,144125000.0,0,0.003,0.015,313819000.0,457944000.0,0.66,457944000.0,313819000.0,298900000.0,0.432,0.425,0.432,2945424000,,2945424000,11964205659,12.0,8.011,-165232000.0,-0.35,1.0,579607000.0,0.836,0,14919000.0,6223361000,,40037000,0,0,0,2853499000,632204000.0,2221295000.0,10907563659,-60928000.0,0.0,15031000.0,14650000.0,-9767000.0,-28976000.0,-403587000.0,0.0,359299000.0,12336000.0,206755000.0,204137000.0,204137000.0,0.0,0.0,0.294,273084000.0,306523000.0,424581000,0.035,3.703,17.766,17.435,5101603000,2618000.0,22.875,4.803,4.709,447742000,2706845000,693654000.0,693654000.0,26475000.0,,,,,8666000.0,34152000.0,1.0,476833384,472196000,482488000.0,1.469,5798923000,25459000,92145000.0,1057403000,12.281,-45401000.0
67,EOG,ARQ,2004-09-30,2004-10-28,2004-09-30,2021-08-04,100194000,5424597000,,557679000,4866918000,,5.804,-353916000.0,81908000,81908000,90141000.0,172310000.0,1.063,0.99,1062972000,0.0,1062972000.0,1062972000,0,130257000.0,0,0.004,0.015,278453000.0,408710000.0,0.688,408710000.0,278453000.0,262343000.0,0.36,0.355,0.36,2725912000,,2725912000,8692004639,11.0,6.853,38988000.0,0.083,1.0,504089000.0,0.848,0,16110000.0,5881233000,,30739000,0,0,0,2698685000,524428000.0,2174257000.0,7710940639,14069000.0,0.0,17289000.0,-22850000.0,-9729000.0,-14102000.0,-364733000.0,0.0,392904000.0,0.0,172310000.0,169552000.0,169552000.0,0.0,0.0,0.285,229589000.0,274500000.0,339303000,0.042,2.829,16.012,15.708,4758036000,2758000.0,16.258,3.906,3.868,350170000,2509851000,594230000.0,594230000.0,21874000.0,,,,,6938000.0,29576000.0,1.0,474300516,469644000,478708000.0,1.265,5424597000,22560000,90033000.0,1041717000,11.55,33251000.0
68,EOG,ARQ,2004-06-30,2004-08-03,2004-06-30,2021-08-04,41473000,5126966000,,550424000,4576542000,,5.323,-300216000.0,67839000,67839000,84596000.0,144937000.0,1.088,1.069,1085822000,0.0,1085822000.0,1085822000,0,116224000.0,0,0.003,0.015,228161000.0,344385000.0,0.664,344385000.0,228161000.0,212745000.0,0.305,0.3,0.305,2477931000,,2477931000,8665303048,12.0,7.436,-5360000.0,-0.012,1.0,434425000.0,0.837,0,15416000.0,5638885000,,30253000,0,0,0,2649035000,506064000.0,2142971000.0,7647320048,-27878000.0,0.0,34415000.0,0.0,-9638000.0,22345000.0,-345079000.0,0.0,294856000.0,0.0,144937000.0,142179000.0,142179000.0,0.0,0.0,0.274,207689000.0,226736000.0,319535000,0.049,3.086,17.923,17.538,4467019000,2758000.0,16.223,4.159,4.108,355662000,2347446000,519021000.0,519021000.0,19596000.0,,,,,11373000.0,26370000.0,1.0,471402068,465552000,474836000.0,1.115,5126966000,39564000,67808000.0,962831000,11.013,44360000.0
69,EOG,ARQ,2004-03-31,2004-05-04,2004-03-31,2021-08-04,61761000,4955053000,,503844000,4451209000,,5.006,-224562000.0,95717000,95717000,74444000.0,100853000.0,1.022,1.14,1085822000,0.0,1085822000.0,1085822000,0,113797000.0,0,0.004,0.015,168707000.0,282504000.0,0.608,282504000.0,168707000.0,152024000.0,0.212,0.207,0.212,2315557000,,2315557000,7286807955,11.0,6.582,172726000.0,0.373,1.0,389876000.0,0.84,0,16683000.0,5452134000,,23758000,0,0,0,2639496000,493024000.0,2146472000.0,6296702955,91274000.0,0.0,8775000.0,-23050000.0,-8461000.0,-22505000.0,-283509000.0,0.0,397288000.0,0.0,100853000.0,98095000.0,98095000.0,0.0,0.0,0.211,218440000.0,171436000.0,296457000,0.071,2.719,16.123,15.832,4336307000,2758000.0,13.505,3.61,3.581,303566000,2212300000,464320000.0,464320000.0,25996000.0,,,,,2419000.0,24915000.0,1.0,466249756,462580000,470484000.0,1.004,4955053000,46515000,51171000.0,945500000,10.712,10820000.0
70,EOG,ARQ,2003-12-31,2004-03-11,2003-12-31,2021-08-04,73934000,4749015000,,396014000,4353001000,,4.837,-638439000.0,4443000,4443000,78435000.0,74510000.0,0.831,1.136,1108872000,0.0,1108872000.0,1108872000,0,121265000.0,0,0.004,0.013,111522000.0,232787000.0,0.587,232787000.0,111522000.0,97568000.0,0.158,0.152,0.158,2223381000,,2223381000,6203274703,9.0,5.407,-332590000.0,-0.724,1.0,318093000.0,0.802,0,13954000.0,5376925000,,21922000,0,0,0,2525634000,476519000.0,2049115000.0,5098845703,-180046000.0,0.0,17421000.0,98050000.0,-8416000.0,105667000.0,-591562000.0,0.0,305849000.0,0.0,74510000.0,71752000.0,71752000.0,0.0,0.0,0.181,217088000.0,101005000.0,282379000,0.082,2.293,12.166,11.984,4248917000,2758000.0,10.965,2.923,2.881,295118000,2121214000,396528000.0,396528000.0,18949000.0,,,,,4901000.0,28669000.0,1.0,465011008,459684000,468896000.0,0.863,4749015000,39524000,23058000.0,876015000,10.331,-80505000.0
71,EOG,ARQ,2003-09-30,2003-11-06,2003-09-30,2021-08-04,40481000,4426062000,,557976000,3868086000,,4.581,-237168000.0,184489000,184489000,63307000.0,117419000.0,1.577,1.107,1010822000,0.0,1010822000.0,1010822000,0,110438000.0,0,0.004,0.013,195236000.0,305674000.0,0.666,305674000.0,195236000.0,179604000.0,0.25,0.247,0.25,2100447000,,2100447000,5619671106,8.0,5.148,124072000.0,0.271,1.0,395417000.0,0.862,0,15632000.0,4898467000,,20788000,0,0,0,2325615000,353928000.0,1971687000.0,4793338106,33522000.0,0.0,2987000.0,0.0,-8398000.0,-7561000.0,-320157000.0,0.0,361240000.0,0.0,117419000.0,114661000.0,114661000.0,0.0,0.0,0.25,202105000.0,193312000.0,252211000,0.052,2.282,12.322,12.25,3703793000,2758000.0,10.412,2.843,2.831,274834000,2055248000,458724000.0,458724000.0,17812000.0,,,,,2223000.0,26379000.0,1.0,460344596,458464000,465480000.0,1.001,4426062000,0,62185000.0,835730000,9.654,204048000.0
72,EOG,ARQ,2003-06-30,2003-08-07,2003-06-30,2021-08-04,37546000,4240341000,,552781000,3687560000,,4.332,-182403000.0,150967000,150967000,57056000.0,108791000.0,1.711,1.14,1010822000,0.0,1010822000.0,1010822000,0,106587000.0,0,0.004,0.013,179548000.0,286135000.0,0.674,286135000.0,179548000.0,165741000.0,0.233,0.228,0.233,1981804000,,1981804000,5461012787,10.0,5.761,184247000.0,0.403,1.0,367698000.0,0.866,0,13807000.0,4777076000,,18972000,0,0,0,2258537000,323120000.0,1935417000.0,4601157787,144134000.0,0.0,7274000.0,-33386000.0,-7239000.0,-33326000.0,-189190000.0,0.0,366650000.0,0.0,108791000.0,106033000.0,106033000.0,0.0,0.0,0.25,190830000.0,176868000.0,226408000,0.056,2.322,15.312,15.24,3594857000,2758000.0,10.012,3.052,3.039,303804000,1946331000,424754000.0,424754000.0,22139000.0,,,,,1843000.0,24934000.0,1.0,459541352,457528000,464524000.0,0.928,4240341000,0,56950000.0,796312000,9.268,229661000.0
73,EOG,ARQ,2003-03-31,2003-05-05,2003-03-31,2021-08-04,-10621000,4070655000,,495212000,3575443000,,3.983,-132893000.0,6833000,6833000,54959000.0,129425000.0,1.495,1.233,1044208000,0.0,1044208000.0,1044208000,0,103553000.0,0,0.004,0.01,219150000.0,322703000.0,0.694,322703000.0,219150000.0,203832000.0,0.278,0.273,0.278,1822952000,,1822952000,5365076444,13.0,6.469,153669000.0,0.336,1.0,409710000.0,0.882,0,15318000.0,4776740000,,18282000,0,0,0,2247703000,331290000.0,1916413000.0,4327701444,-3015000.0,0.0,-13839000.0,-100924000.0,-7241000.0,-121976000.0,-167601000.0,0.0,286562000.0,0.0,129425000.0,126667000.0,126667000.0,0.0,0.0,0.273,183581000.0,226129000.0,222756000,0.036,2.374,18.832,18.772,3482010000,2758000.0,9.443,3.152,3.147,370384000,1846031000,464669000.0,464669000.0,17458000.0,,,,,2959000.0,20421000.0,1.0,458321572,457708000,464896000.0,1.015,4070655000,0,74407000.0,756460000,8.894,163922000.0
74,EOG,ARQ,2002-12-31,2003-03-13,2002-12-31,2021-08-04,-49877000,3814006000,,394792000,3419214000,,3.646,-173093000.0,60673000,60673000,63886000.0,44419000.0,1.429,1.281,1145132000,0.0,1145132000.0,1145132000,0,105412000.0,0,0.004,0.01,71762000.0,177174000.0,0.524,177174000.0,71762000.0,57111000.0,0.09,0.09,0.09,1672395000,,1672395000,5723474693,32.0,9.913,32446000.0,0.071,1.0,274275000.0,0.811,0,14651000.0,4622114000,,18928000,0,0,0,2141611000,276351000.0,1865260000.0,4639015693,2066000.0,0.0,-35242000.0,54264000.0,-7274000.0,10908000.0,-214381000.0,0.0,205539000.0,0.0,44419000.0,41661000.0,41661000.0,0.0,0.0,0.123,203578000.0,70697000.0,201931000,0.111,2.774,60.927,61.152,3321548000,2758000.0,10.09,4.236,4.251,259308000,1723948000,338161000.0,338161000.0,18714000.0,,,,,952000.0,24669000.0,1.0,459763696,458700000,468716000.0,0.737,3814006000,0,12692000.0,684118000,8.315,118441000.0
75,EOG,ARQ,2002-09-30,2002-10-30,2002-09-30,2021-08-04,-51650000,3692957000,,313379000,3379578000,,3.602,-189273000.0,7782000,7782000,54821000.0,28887000.0,1.166,1.217,1090868000,0.0,1090868000.0,1090868000,0,100208000.0,0,0.004,0.01,61636000.0,161844000.0,0.578,161844000.0,61636000.0,42866000.0,0.058,0.055,0.058,1665839000,,1665839000,5392629416,77.0,11.716,-333000.0,-0.001,1.0,225048000.0,0.804,0,18770000.0,4507261000,,18103000,0,0,0,2027118000,268782000.0,1758336000.0,4309543416,-1424000.0,0.0,-23530000.0,55025000.0,-7301000.0,23882000.0,-214246000.0,0.0,188940000.0,0.0,28887000.0,26129000.0,26129000.0,0.0,0.0,0.093,163348000.0,61700000.0,176858000,0.172,2.587,622.227,466.25,3282756000,2758000.0,9.325,4.334,4.337,196782000,1687437000,279869000.0,279869000.0,12824000.0,,,,,1813000.0,21582000.0,1.0,462149428,462484000,468312000.0,0.605,3692957000,0,13979000.0,647041000,7.985,44597000.0
76,EOG,ARQ,2002-06-30,2002-08-13,2002-06-30,2021-08-04,-30673000,3589598000,,275988000,3313610000,,3.641,-179317000.0,9206000,9206000,56474000.0,38108000.0,1.181,1.129,1035843000,0.0,1035843000.0,1035843000,0,97956000.0,0,0.005,0.01,69737000.0,167693000.0,0.577,167693000.0,69737000.0,55555000.0,0.077,0.075,0.077,1685655000,,1685655000,5033271354,38.0,9.551,-26670000.0,-0.058,1.0,234029000.0,0.806,0,14182000.0,4382501000,,17058000,0,0,0,1903943000,233734000.0,1670209000.0,4006634354,3803000.0,0.0,3113000.0,60181000.0,-7295000.0,54160000.0,-203004000.0,0.0,152647000.0,0.0,38108000.0,35350000.0,35350000.0,0.0,0.0,0.122,164389000.0,69640000.0,167921000,0.13,2.377,80.131,76.987,3227288000,2758000.0,8.623,3.749,3.736,204342000,1665936000,290503000.0,290503000.0,15754000.0,,,,,865000.0,21988000.0,1.0,464672004,462948000,470756000.0,0.628,3589598000,0,17447000.0,614051000,7.754,42254000.0
77,EOG,ARQ,2002-03-31,2002-05-07,2002-03-31,2021-08-04,-54086000,3479523000,,266218000,3213305000,,3.518,-172444000.0,5403000,5403000,50997000.0,-24241000.0,1.017,1.141,975662000,0.0,975662000.0,975662000,0,94460000.0,0,0.004,0.01,-23809000.0,70651000.0,0.379,70651000.0,-23809000.0,-35860000.0,-0.058,-0.058,-0.058,1625114000,,1625114000,5888091498,20.0,8.506,-51000000.0,-0.11,1.0,135506000.0,0.727,0,12051000.0,4188142000,,18302000,0,0,0,1854409000,261640000.0,1592769000.0,4917832498,2891000.0,0.0,9960000.0,119693000.0,-7282000.0,122354000.0,-240907000.0,0.0,121444000.0,0.0,-24241000.0,-26999000.0,-26999000.0,0.0,0.0,-0.145,156212000.0,-20706000.0,166958000,-0.172,3.026,33.207,32.802,3125090000,2758000.0,10.595,3.953,3.934,185518000,1636121000,186503000.0,186503000.0,12936000.0,,,,,1538000.0,20713000.0,1.0,464165408,461940000,461940000.0,0.404,3479523000,0,-11619000.0,592330000,7.532,4578000.0
78,EOG,ARQ,2001-12-31,2002-03-20,2001-12-31,2021-08-04,-55118000,3414044000,,272421000,3141623000,,3.568,-219981000.0,2512000,2512000,78072000.0,-24797000.0,0.876,1.078,855969000,0.0,855969000.0,855969000,0,97617000.0,0,0.004,0.01,-37538000.0,60079000.0,0.253,60079000.0,-37538000.0,-48493000.0,-0.057,-0.052,-0.057,1642686000,,1642686000,5535215664,8.0,5.178,-75996000.0,-0.165,1.0,159342000.0,0.671,0,10955000.0,3956654000,,18871000,0,0,0,1771358000,310847000.0,1460511000.0,4681758664,-8832000.0,0.0,-13587000.0,153823000.0,-7274000.0,131468000.0,-284285000.0,0.0,143985000.0,0.0,-24797000.0,-27554000.0,-27554000.0,0.0,0.0,-0.116,197000000.0,-37658000.0,219561000,-0.175,2.85,12.078,12.061,3055910000,2757000.0,10.107,2.829,2.828,194624000,1668708000,237414000.0,237414000.0,17048000.0,,,,,1199000.0,22354000.0,1.0,463196504,460456000,461900000.0,0.516,3414044000,19332000,-23696000.0,591239000,7.414,-38426000.0
79,EOG,ARQ,2001-09-30,2001-10-29,2001-09-30,2021-08-04,-51619000,3386362000,,336192000,3050170000,,3.651,-334109000.0,11344000,11344000,54257000.0,71963000.0,0.879,1.004,701022000,0.0,701022000.0,701022000,0,103351000.0,0,0.004,0.01,125219000.0,228570000.0,0.645,228570000.0,125219000.0,114977000.0,0.15,0.147,0.15,1689490000,,1689490000,5067656499,5.0,3.665,-101459000.0,-0.219,1.0,299915000.0,0.847,0,10242000.0,3693542000,,21576000,0,0,0,1696872000,382498000.0,1314374000.0,4377978499,-56950000.0,0.0,-18307000.0,60200000.0,-7300000.0,34843000.0,-324443000.0,0.0,232650000.0,0.0,71963000.0,69204000.0,69204000.0,0.0,0.0,0.195,175968000.0,123947000.0,257681000,0.067,2.591,7.629,7.674,2961235000,2759000.0,9.477,2.251,2.255,206270000,1702339000,354172000.0,354172000.0,12408000.0,,,,,-1906000.0,20925000.0,1.0,461933896,462768000,468564000.0,0.765,3386362000,0,43014000.0,633113000,7.318,-46306000.0
80,EOG,ARQ,2001-06-30,2001-07-31,2001-06-30,2021-08-04,-37159000,3210721000,,384577000,2826144000,,3.579,-250483000.0,68294000,68294000,56219000.0,136203000.0,0.971,0.936,640822000,0.0,640822000.0,640822000,0,97470000.0,0,0.004,0.01,235489000.0,332959000.0,0.714,332959000.0,235489000.0,224865000.0,0.287,0.282,0.287,1658586000,,1658586000,4678121930,4.0,3.226,91102000.0,0.197,1.0,409829000.0,0.879,0,10624000.0,3387331000,,20424000,0,0,0,1552135000,395918000.0,1156217000.0,4105593930,37445000.0,0.0,-18467000.0,-4049000.0,-7305000.0,-26846000.0,-277294000.0,0.0,341585000.0,0.0,136203000.0,133446000.0,133446000.0,0.0,0.0,0.286,175590000.0,234239000.0,227040000,0.035,2.475,6.639,6.645,2744530000,2757000.0,8.838,2.069,2.064,244202000,1637758000,466048000.0,466048000.0,17746000.0,,,,,2793000.0,18735000.0,1.0,464565084,463480000,472188000.0,1.006,3210721000,0,88662000.0,589563000,6.927,-11341000.0
81,EOG,ARQ,2001-03-31,2001-05-09,2001-03-31,2021-08-04,-48377000,3012280000,,358915000,2653365000,,3.291,-169443000.0,30849000,30849000,58258000.0,215247000.0,0.884,0.966,644871000,0.0,644871000.0,644871000,0,93961000.0,0,0.003,0.01,353385000.0,447346000.0,0.749,447346000.0,353385000.0,340096000.0,0.458,0.448,0.458,1532274000,,1532274000,5855022884,6.0,4.346,309764000.0,0.665,1.0,538995000.0,0.902,0,13289000.0,3220221000,,20307000,0,0,0,1480006000,406081000.0,1073925000.0,5241000884,10697000.0,0.0,-45603000.0,-214129000.0,-6701000.0,-266477000.0,-202033000.0,0.0,479207000.0,0.0,215247000.0,212526000.0,212526000.0,0.0,0.0,0.356,184971000.0,354024000.0,241402000,0.022,3.42,9.366,9.401,2569541000,2721000.0,11.3,2.857,2.867,286778000,1508953000,597253000.0,597253000.0,20265000.0,,,,,5246000.0,17949000.0,1.0,463805388,465536000,475808000.0,1.283,3012280000,0,124849000.0,500879000,6.471,-47166000.0
82,EOG,ARQ,2000-12-31,2001-03-23,2000-12-31,2021-08-04,-31756000,3000815000,,394427000,2606388000,,2.959,-179817000.0,20152000,20152000,64784000.0,161447000.0,1.067,1.173,859000000,0.0,859000000.0,859000000,0,103239000.0,0,0.003,0.009,270645000.0,373884000.0,0.709,373884000.0,270645000.0,254538000.0,0.34,0.333,0.34,1380925000,,1380925000,5914337577,9.0,5.556,175290000.0,0.376,1.0,462813000.0,0.877,0,16107000.0,3469985000,,16623000,0,0,0,1619890000,369678000.0,1250212000.0,5075489577,3445000.0,0.0,-40549000.0,-86167000.0,-6808000.0,-133013000.0,-218649000.0,0.0,355107000.0,0.0,161447000.0,158688000.0,158688000.0,0.0,0.0,0.301,189053000.0,273760000.0,246030000,0.026,3.675,13.152,13.176,2525007000,2759000.0,10.87,3.407,3.413,342579000,1301067000,527597000.0,527597000.0,26149000.0,,,,,17907000.0,17565000.0,1.0,466926364,466728000,478448000.0,1.13,3000815000,0,93091000.0,418917000,6.429,24749000.0
83,EOG,ARQ,2000-09-30,2000-10-31,2000-09-30,2021-08-04,-32485000,2872493000,,331139000,2541354000,,2.677,-243208000.0,16707000,16707000,32494000.0,116477000.0,1.143,1.301,945167000,0.0,945167000.0,945167000,0,92056000.0,0,0.003,0.009,203693000.0,295749000.0,0.751,295749000.0,203693000.0,188943000.0,0.245,0.237,0.245,1248324000,,1248324000,5530415818,11.0,6.54,41502000.0,0.089,1.0,361220000.0,0.917,0,14750000.0,3511201000,,16612000,0,0,0,1624169000,289752000.0,1334417000.0,4601955818,4993000.0,0.0,-27536000.0,-4383000.0,-6746000.0,-41906000.0,-237811000.0,0.0,284710000.0,0.0,116477000.0,113722000.0,113722000.0,0.0,0.0,0.289,157562000.0,203658000.0,216773000,0.037,3.687,17.896,16.743,2443375000,2755000.0,9.845,3.865,3.855,267217000,1146381000,393714000.0,393714000.0,14898000.0,,,,,11807000.0,17053000.0,1.0,467440916,466236000,477048000.0,0.844,2872493000,0,72466000.0,354671000,6.161,41387000.0
84,EOG,ARQ,2000-06-30,2000-08-08,2000-06-30,2021-08-04,-27341000,2651744000,,265749000,2385995000,,2.492,-101120000.0,11714000,11714000,28928000.0,77517000.0,1.287,1.28,949550000,0.0,949550000.0,949550000,0,90149000.0,0,0.004,0.009,139998000.0,230147000.0,0.728,230147000.0,139998000.0,124417000.0,0.16,0.158,0.16,1163155000,,1163155000,4751212996,6.0,3.803,51630000.0,0.111,1.0,287214000.0,0.908,0,15581000.0,3383080000,,17364000,0,0,0,1488589000,206500000.0,1282089000.0,3813376996,-21644000.0,0.0,-48388000.0,8630000.0,-6187000.0,-45852000.0,-128542000.0,0.0,152750000.0,0.0,77517000.0,74657000.0,74657000.0,0.0,0.0,0.236,147979000.0,139235000.0,167040000,0.056,3.278,5.81,6.408,2291913000,2860000.0,8.203,3.725,3.739,225598000,1036745000,316142000.0,316142000.0,13204000.0,,,,,11593000.0,16027000.0,1.0,464904236,466664000,476708000.0,0.677,2651744000,0,46900000.0,282670000,5.682,59249000.0
85,EOG,ARQ,2000-03-31,2000-05-10,2000-03-31,2021-08-04,-21909000,2616085000,,237092000,2378993000,,2.406,-78493000.0,33358000,33358000,32046000.0,41490000.0,1.006,1.307,940920000,0.0,940920000.0,940920000,0,84582000.0,0,0.004,0.007,80227000.0,164809000.0,0.653,164809000.0,80227000.0,65659000.0,0.083,0.083,0.083,1133896000,,1133896000,4281753339,6.0,3.708,96350000.0,0.204,1.0,220396000.0,0.873,0,14568000.0,3287932000,,16954000,0,0,0,1482189000,235715000.0,1246474000.0,3374191339,8522000.0,0.0,-29160000.0,-49386000.0,-6330000.0,-84162000.0,-82159000.0,0.0,174843000.0,0.0,41490000.0,38836000.0,38836000.0,0.0,0.0,0.154,140186000.0,80210000.0,187436000,0.084,2.976,5.602,6.234,2294811000,2654000.0,7.188,3.77,3.785,180039000,965722000,252442000.0,252442000.0,12945000.0,,,,,0.0,16287000.0,1.0,469452708,471308000,473116000.0,0.536,2616085000,0,24169000.0,262549000,5.551,1377000.0
86,EOG,ARQ,1999-12-31,2000-03-08,1999-12-31,2021-08-04,-19810000,2610793000,,200501000,2410292000,,2.37,-107954000.0,24836000,24836000,29492000.0,30469000.0,,1.311,990306000,,,990306000,0,90976000.0,0,0.006,0.007,63944000.0,154920000.0,0.678,154920000.0,63944000.0,48091000.0,0.1,0.098,0.1,1129611000,,1129611000,3178430162,5.0,2.918,55679000.0,0.117,1.0,198985000.0,0.871,0,15853000.0,3576263000,,18816000,0,0,0,1481182000,,,2212960162,5996000.0,0.0,-1213000.0,-174919000.0,-3567000.0,-36394000.0,-121243000.0,0.0,163633000.0,0.0,30469000.0,29934000.0,29934000.0,0.0,0.0,0.131,133659000.0,65326000.0,218618000,0.07,1.959,3.892,4.673,2334928000,535000.0,4.72,2.761,3.319,148189000,930938000,228477000.0,228477000.0,14604000.0,,,,,0.0,7936000.0,1.0,468847492,476668000,480536000.0,0.479,2610793000,0,17622000.0,245600000,5.477,
87,EOG,ARQ,1999-09-30,1999-11-12,1999-09-30,2021-08-04,-25264000,2597282000,,202435000,2394847000,,1.74,-115126000.0,18840000,18840000,23859000.0,512921000.0,,1.729,1165225000,,,1165225000,1049000,198098000.0,0,0.006,0.007,501206000.0,699304000.0,3.084,699304000.0,501206000.0,484281000.0,0.938,0.92,0.938,951706000,,951706000,3485929191,6.0,3.347,8231000.0,0.015,1.0,202921000.0,0.895,0,16925000.0,3743667000,,20500000,0,0,0,1645576000,,,2339544191,7429000.0,0.0,588781000.0,25342000.0,-4625000.0,-14362000.0,-101566000.0,0.0,123357000.0,0.0,512921000.0,512921000.0,512921000.0,0.0,0.0,2.262,256150000.0,-53229000.0,212096000,0.007,2.458,4.265,4.947,2324270000,0.0,4.907,3.047,3.497,135165000,904862000,226780000.0,226780000.0,11078000.0,,,,,0.0,24901000.0,1.0,476728312,547000000,556816000.0,0.415,2597282000,0,-28640000.0,254081000,4.748,
88,EOG,ARQ,1999-06-30,1999-07-30,1999-06-30,2021-08-04,-26124000,2962046000,,225270000,2736776000,,2.129,-88248000.0,11411000,11411000,25668000.0,20638000.0,,1.261,1139883000,,,1139883000,2099000,88781000.0,0,0.006,0.007,47047000.0,135828000.0,0.726,135828000.0,47047000.0,32273000.0,0.033,0.033,0.033,1310044000,,1310044000,4419170210,43.0,9.948,-2216000.0,-0.004,1.0,161527000.0,0.863,0,14774000.0,4090518000,,35175000,0,0,0,1652002000,,,3290698210,-1722000.0,0.0,2765000.0,-30635000.0,-4602000.0,-32768000.0,-54986000.0,0.0,86032000.0,0.0,20638000.0,20638000.0,20638000.0,0.0,0.0,0.11,145832000.0,15695000.0,225572000,0.212,2.512,79.079,82.231,2666848000,0.0,5.345,4.494,4.492,172264000,854846000,187195000.0,187195000.0,10302000.0,,,,,0.0,26384000.0,1.0,615659160,615300000,621084000.0,0.304,2962046000,0,11635000.0,281909000,4.814,
89,EOG,ARQ,1999-03-31,1999-04-26,1999-03-31,2021-08-04,-32399000,2990235000,,227661000,2762574000,,2.089,-91501000.0,13133000,13133000,24414000.0,5066000.0,,1.328,1170518000,,,1170518000,3148000,82022000.0,0,0.007,0.007,17334000.0,99356000.0,0.625,99356000.0,17334000.0,3067000.0,0.007,0.007,0.007,1284713000,,1284713000,3847858170,43.0,9.293,-22391000.0,-0.036,1.0,134540000.0,0.846,0,14267000.0,4147620000,,38384000,0,0,0,1705522000,,,2690473170,6830000.0,0.0,184000.0,27739000.0,-4601000.0,23290000.0,-85570000.0,0.0,69110000.0,0.0,5066000.0,5066000.0,5066000.0,0.0,0.0,0.032,144144000.0,-9604000.0,252942000,1.0,2.094,78.595,79.545,2681316000,0.0,4.375,3.694,3.694,168807000,838825000,158954000.0,158954000.0,16789000.0,,,,,0.0,23635000.0,1.0,614965296,614932000,618460000.0,0.258,2990235000,0,-1999000.0,271988000,4.863,
90,EOG,ARQ,1998-12-31,1999-03-18,1998-12-31,2021-08-04,-35848000,3018095000,,246350000,2771745000,,2.082,-110170000.0,6303000,6303000,49365000.0,9965000.0,,1.357,1142779000,,,1142779000,4198000,85698000.0,0,0.007,0.007,21351000.0,107049000.0,0.55,107049000.0,21351000.0,5934000.0,0.015,0.015,0.015,1280304000,,1280304000,3797571796,35.0,8.957,-25537000.0,-0.042,1.0,145423000.0,0.747,0,15417000.0,4154571000,,39581000,0,0,0,1737791000,,,2661095796,-2938000.0,0.0,46000.0,68392000.0,-4601000.0,60803000.0,-148374000.0,0.0,84633000.0,0.0,9965000.0,9965000.0,9965000.0,0.0,0.0,0.051,121916000.0,23507000.0,308961000,0.467,2.078,47.375,48.083,2676363000,0.0,4.327,3.46,3.473,193588000,838371000,194788000.0,194788000.0,15711000.0,,,,,0.0,21440000.0,1.0,614926816,614812000,618056000.0,0.317,3018095000,0,-4031000.0,280424000,4.909,
91,EOG,ARQ,1998-09-30,1998-11-13,1998-09-30,2021-08-04,-35220000,2961454000,,235271000,2726183000,,2.07,-309498000.0,9241000,9241000,24488000.0,5944000.0,,1.321,1074387000,,,1074387000,5743000,84376000.0,0,0.007,0.007,17598000.0,101974000.0,0.533,101974000.0,17598000.0,3969000.0,0.01,0.01,0.01,1275811000,,1275811000,3813215675,,,-184414000.0,-0.299,1.0,166774000.0,0.872,0,13629000.0,4026600000,,35056000,0,0,0,1685643000,,,2748069675,-4327000.0,0.0,-17291000.0,223527000.0,-4635000.0,201557000.0,-330968000.0,0.0,125084000.0,0.0,5944000.0,5944000.0,5944000.0,0.0,0.0,0.031,147575000.0,19199000.0,312328000,0.7,2.154,,,2665255000,0.0,4.47,,,183123000,833017000,191262000.0,191262000.0,16231000.0,,,,,0.0,15812000.0,1.0,614780688,616332000,617636000.0,0.31,2961454000,0,-1975000.0,301821000,4.805,
92,EOG,ARQ,1998-06-30,1998-08-14,1998-06-30,2021-08-04,-26799000,2762961000,,245129000,2517832000,,2.098,-153181000.0,13568000,13568000,22857000.0,13257000.0,,1.126,850860000,,,850860000,15413000,73071000.0,0,0.008,0.007,32596000.0,105667000.0,0.576,105667000.0,32596000.0,22173000.0,0.022,0.022,0.022,1299834000,,1299834000,3154842325,,,-71180000.0,-0.115,1.0,160450000.0,0.875,0,10423000.0,3600253000,,34816000,0,0,0,1463127000,,,2317550325,8508000.0,0.0,729000.0,51660000.0,-4635000.0,43903000.0,-117396000.0,0.0,82001000.0,0.0,13257000.0,13257000.0,13257000.0,0.0,0.0,0.072,127781000.0,32669000.0,287237000,0.318,1.783,,,2459835000,0.0,3.75,,,188332000,831684000,183307000.0,183307000.0,16600000.0,,,,,0.0,15204000.0,1.0,618013420,619428000,623080000.0,0.296,2762961000,0,8916000.0,306131000,4.461,
93,EOG,ARQ,1998-03-31,1998-05-15,1998-03-31,2021-08-04,-17614000,2738763000,,283881000,2454882000,,2.099,-117503000.0,5060000,5060000,24909000.0,27005000.0,,1.108,799200000,,,799200000,25566000,71961000.0,0,0.006,0.007,37316000.0,109277000.0,0.547,109277000.0,37316000.0,28206000.0,0.043,0.043,0.043,1299402000,,1299402000,4046303047,,,-5615000.0,-0.009,1.0,174922000.0,0.875,0,9110000.0,3532903000,,34355000,0,0,0,1439361000,,,3252163047,-4270000.0,0.0,-6476000.0,57925000.0,-4633000.0,46724000.0,-162882000.0,0.0,111888000.0,0.0,27005000.0,27005000.0,27005000.0,0.0,0.0,0.135,136636000.0,38286000.0,307826000,0.163,2.503,,,2401829000,0.0,5.25,,,236658000,823074000,199831000.0,199831000.0,17398000.0,,,,,0.0,16554000.0,1.0,619459628,618944000,622088000.0,0.323,2738763000,0,1201000.0,305232000,4.425,
94,EOG,ARQ,1997-12-31,1998-03-13,1997-12-31,2021-08-04,-19771000,2723355000,,282035000,2441320000,,2.035,,9330000,9330000,,,,1.126,741275000,,,741275000,39918000,,0,0.005,0.007,,,,,,,,,,1281049000,,1281049000,4195526997,22.0,8.939,,,1.0,,,0,,3455300000,,32040000,0,0,0,1442306000,,,3463581997,,,,,,,,,,,,,,,,,,,335696000,,2.704,28.397,28.692,2387207000,,5.595,4.421,4.495,232099000,800709000,,,,,,,,,,1.0,619049508,629504000,,,2723355000,0,,316519000,4.326,
0,EOG,ART,2021-06-30,2021-08-04,2021-06-30,2021-08-04,-15000000,36885000000,35983654750.0,6935000000,29950000000,0.362,36.002,-2972741000.0,3880000000,3880000000,5330212000.0,1878999000.0,1.733,0.766,5378000000,292000000.0,5086000000.0,5378000000,0,3507614000.0,0,0.036,2.575,2578568000.0,6086182000.0,0.467,6086182000.0,2578568000.0,2380205000.0,3.25,3.23,3.25,20881000000,20523303250.0,20881000000,42800267435,17.0,7.032,2791050000.0,4.812,1.0,7713770000.0,0.591,0,198363000.0,34381000000,34836393250.0,516000000,0,0,0,16004000000,4002000000.0,12002000000.0,41302267435,1463427000.0,0.0,-6518000.0,-779013000.0,-894723000.0,-1680254000.0,-2620321000.0,0.0,5763791000.0,211000.0,1878999000.0,1878999000.0,1878999000.0,0.0,0.0,0.144,5125822000.0,2587948000.0,2012000000,0.792,1.978,21.981,21.766,28659000000,0.0,70.74,3.166,3.145,2015000000,14689000000,13043982000.0,13043982000.0,146828000.0,0.052,0.092,0.074,0.198,132753000.0,467695000.0,1.0,583860156,580000000,584000000.0,22.49,36885000000,14000000,501206000.0,5016000000,63.595,2933000000.0
1,EOG,ART,2021-03-31,2021-05-06,2021-03-31,2021-08-04,-14000000,36171000000,35567822500.0,6191000000,29980000000,0.281,35.797,-2521747000.0,3388000000,3388000000,4652584000.0,62615000.0,1.869,0.742,5402000000,308000000.0,5094000000.0,5402000000,0,3300293000.0,0,0.02,1.538,318519000.0,3618812000.0,0.362,3618812000.0,318519000.0,110943000.0,0.12,0.11,0.12,20762000000,20399942500.0,20762000000,46939922292,147.0,12.971,1771118000.0,3.054,1.0,5355772000.0,0.535,0,207576000.0,34873000000,35398066500.0,562000000,0,0,0,15409000000,3312000000.0,12097000000.0,44925922292,481076000.0,0.0,-5372000.0,-293620000.0,-872765000.0,-1171757000.0,-2637563000.0,0.0,4292865000.0,-2469000.0,62615000.0,62615000.0,62615000.0,0.0,0.0,0.006,5025373000.0,330399000.0,1945000000,12.817,2.164,717.495,641.5,28666000000,0.0,76.98,4.489,4.461,1828000000,14606000000,10008356000.0,10008356000.0,139111000.0,0.002,0.003,0.009,0.032,141324000.0,479550000.0,1.0,583605122,580000000,583000000.0,17.256,36171000000,4000000,48328000.0,5274000000,62.364,2879000000.0
2,EOG,ART,2020-12-31,2021-02-25,2020-12-31,2021-08-04,-12328000,35804601000,35933593500.0,5862168000,29942433000,0.307,35.067,-3272772000.0,3328928000,3328928000,4968386000.0,-604572000.0,1.694,0.764,6111494000,1076143000.0,5035351000.0,6111494000,0,3400353000.0,0,0.021,1.5,-533788000.0,2866565000.0,0.26,2866565000.0,-533788000.0,-739054000.0,-1.04,-1.04,-1.04,20301887000,20577111250.0,20301887000,43976311983,-82.0,15.341,1735011000.0,2.997,1.0,6063662000.0,0.55,0,205266000.0,35127063000,35671505750.0,629401000,0,0,0,15502714000,3460104000.0,12042610000.0,41193745983,1300956000.0,0.0,39000.0,461759000.0,-820823000.0,-359025000.0,-3347506000.0,0.0,5007783000.0,-296000.0,-604572000.0,-604572000.0,-604572000.0,0.0,0.0,-0.055,6607678000.0,-544016000.0,1681193000,-1.442,2.029,-68.137,-67.875,28598627000,0.0,70.59,3.734,3.704,1522256000,14169969000,11032048000.0,11032048000.0,145788000.0,-0.017,-0.029,-0.015,-0.048,146396000.0,483823000.0,1.0,583563479,578949000,578949000.0,19.055,35804601000,25164000,-134482000.0,5065081000,61.844,2402064000.0
3,EOG,ART,2020-09-30,2020-11-05,2020-09-30,2021-08-04,-7930000,35074018000,36263595250.0,5095057000,29978961000,0.342,34.795,-3698006000.0,3065556000,3065556000,5678373000.0,-305517000.0,1.687,0.741,5976090000,1026188000.0,4949902000.0,5976090000,0,3488997000.0,0,0.04,1.413,-142766000.0,3346231000.0,0.27,3346231000.0,-142766000.0,-335606000.0,-0.52,-0.52,-0.52,20148326000,20911818500.0,20148326000,23678806642,-166.0,7.076,1995743000.0,3.447,1.0,6708423000.0,0.542,0,192840000.0,34964510000,35928354000.0,668541000,0,0,0,14925692000,3020042000.0,11905650000.0,20768272642,1482451000.0,0.0,-733000.0,477546000.0,-768591000.0,-304677000.0,-3907685000.0,0.0,5693749000.0,1064000.0,-305517000.0,-305517000.0,-305517000.0,0.0,0.0,-0.025,6876350000.0,-167927000.0,1245029000,-2.717,1.031,-67.977,-68.462,28633006000,0.0,35.6,1.677,1.664,1134346000,14051197000,12386796000.0,12386796000.0,141868000.0,-0.008,-0.015,-0.004,-0.012,155869000.0,495775000.0,1.0,583378445,579055000,579055000.0,21.391,35074018000,5098000,-30089000.0,5071901000,60.571,2075015000.0
4,EOG,ART,2020-06-30,2020-08-06,2020-06-30,2021-08-04,-6130000,35221671000,36630658000.0,4597391000,30624280000,0.394,35.229,-4830529000.0,2416501000,2416501000,6665126000.0,352072000.0,2.134,0.728,5976904000,273763000.0,5703141000.0,5976904000,0,3619544000.0,0,0.026,1.325,693624000.0,4313168000.0,0.299,4313168000.0,693624000.0,514406000.0,0.61,0.61,0.61,20387557000,21155807000.0,20387557000,33190777819,48.0,7.695,1711331000.0,2.957,1.0,7779641000.0,0.539,0,179218000.0,36627693000,36199005000.0,676580000,0,0,0,14834114000,2154381000.0,12679733000.0,29630374819,1256016000.0,0.0,-3941000.0,479061000.0,-717619000.0,-255376000.0,-5029678000.0,0.0,6541860000.0,-790000.0,352072000.0,352072000.0,352072000.0,0.0,0.0,0.024,7116895000.0,662746000.0,1281166000,2.172,1.453,84.16,83.426,29233465000,0.0,50.89,2.051,2.039,943354000,14312493000,14444767000.0,14444767000.0,137995000.0,0.01,0.017,0.019,0.048,176728000.0,507073000.0,1.0,582243561,578719000,578719000.0,24.96,35221671000,198804000,162334000.0,5031659000,60.861,2443010000.0
5,EOG,ART,2020-03-31,2020-05-07,2020-03-31,2021-08-04,-3305000,37634084000,36763115500.0,6491049000,31143035000,0.491,37.117,-5959872000.0,2906852000,2906852000,7865463000.0,2109297000.0,1.508,0.753,5544536000,841384000.0,4703152000.0,5544536000,0,3870169000.0,0,0.026,1.237,2923947000.0,6794116000.0,0.377,6794116000.0,2923947000.0,2749034000.0,3.65,3.64,3.65,21470675000,21216486750.0,21470675000,30756323410,11.0,4.527,3180457000.0,5.498,1.0,10173560000.0,0.564,0,174913000.0,35966757000,35980248250.0,662398000,0,0,0,16163409000,4305011000.0,11858398000.0,28118639410,1771042000.0,0.0,-5950000.0,-905447000.0,-627712000.0,-1552008000.0,-5817110000.0,0.0,9140329000.0,-169000.0,2109297000.0,2109297000.0,2109297000.0,0.0,0.0,0.117,7293494000.0,2880066000.0,2892320000,0.339,1.31,13.331,13.236,29694054000,0.0,48.31,1.559,1.549,1449637000,15440142000,18039023000.0,18039023000.0,143234000.0,0.057,0.099,0.081,0.162,175723000.0,496998000.0,1.0,582045941,578462000,580283000.0,31.184,37634084000,311886000,639737000.0,5291311000,65.059,2186038000.0
