,ticker,dimension,calendardate,dps,sharefactor,shareswa,price,divyield,cor,gp,opex,opinc,revenue,sgna,intexp,taxexp,rnd,prefdivis,consolinc,ebit,ebt,netinc,netinccmn,netincdis,netincnci,grossmargin,netmargin,capex,ncfbus,ncfi,ncfinv,depamor,ncfcommon,ncfdebt,ncfdiv,ncff,ncfo,sbcomp,fcf,ncf,ebitda,ebitdamargin,ncfx,eps,epsusd,payoutratio,sps,fcfps,epsdil,debt,payables,taxliabilities,accoci,deferredrev,deposits,cashneq,receivables,ppnenet,taxassets,intangibles,inventory,investments,equity,liabilities,assets,invcap,tangibles,de,bvps,tbvps,pe1,ps1,sharesbas,marketcap,pb,ps,pe,retearn,ev,evebit,evebitda,investmentsc,assetsc,debtc
0,EOG,MRY,2020-12-31,0.007679347826086956,0.018049889895671637,0.02200427055032015,0.0037795662367845944,0.0031613413119566448,0.17516598764776042,0.2684228374719254,0.13808938099681764,0.38734380273013774,0.14367194036850095,0.05920904460963543,0.30654005575719323,0.5617289392791909,0.03169323730176596,0.013660192605251613,0.4815870460194503,0.4083642021602145,0.44812686990472955,0.4812325202617694,0.4822424537393048,0.4640309112748007,0.3351357316265725,0.3637976674845888,0.9896791289128837,0.46185806858826006,0.28763431895039454,0.3341261587055634,0.37797443342690873,0.22876433772074667,0.7775988430251214,0.7764286055233092,0.8978344060854301,0.4891511452093054,0.4870920951625694,0.1197704458598726,0.4592137679517279,0.32369299538769813,0.3972941232823649,0.984523356674519,0.44667617551069744,0.7265473723559001,0.7265473723559001,0.5273167448797701,0.016676371198575186,0.5167538584541463,0.6168595745524936,0.001589462008659615,0.004693066211040013,0.06612119545287862,0.3973934331797235,0.0,0.0,0.004493572383347933,0.0036586432634173804,0.11190893581054642,0.0015866002570694086,0.0,0.0009385118097312782,1.1298493413537448e-06,0.19845748649721934,0.008549266783059126,0.008611032414807176,0.0046597315076166,0.008611032414807176,0.5689517972894573,0.8328943604678257,0.0036879843032422955,0.4205122510358172,0.0037677119901700458,0.02213545586236001,0.012965459046107054,0.975415813341042,0.0037312048329328417,0.6824040424776281,0.23935034517562873,0.033754218151114256,0.37222248348185943,0.6828984936257234,0.0,0.03178855351778142,0.007615014317076175
1,EOG,MRY,2019-12-31,0.005516304347826086,0.018049889895671637,0.021955657091041383,0.006348549384891893,0.0013548605622671335,0.1811010734403231,0.28241243046955355,0.13264208120977197,0.40628436554205466,0.15346437320284828,0.059254033592419514,0.30601044132344435,0.5722519378981601,0.031577071669121576,0.013660192605251613,0.49770462607688415,0.4267431965312438,0.46586564012537107,0.4975174334116821,0.49849566351610486,0.4640309112748007,0.3351357316265725,0.363774148955908,0.9896883693111727,0.4301995160950978,0.28763431895039454,0.3307533919365893,0.37797443342690873,0.23425805538519603,0.777530472038201,0.7745787326985966,0.9037525122751672,0.48816342860272227,0.4971012846946868,0.12157566878980891,0.45965471647374134,0.32205553337891624,0.4165105401048804,0.9845315340744559,0.44667303275716186,0.7265590945659328,0.7265590945659328,0.5278893375532031,0.01713703543790477,0.5167998548007222,0.6168694925479201,0.0014421963840793284,0.006781709605011893,0.06882507104877154,0.39746901744568797,0.0,0.0,0.002751019927084924,0.00471521468485942,0.11881777379517602,0.004177940231362467,0.0,0.001144860566091225,1.1298493413537448e-06,0.20084144806081727,0.008544651980672315,0.008928395555788572,0.004790869345472294,0.008928395555788572,0.5689515600217325,0.8329577406568935,0.0038323550688361126,0.4232741497886302,0.003769212211677302,0.02207416467674557,0.021716741742858377,0.975416341867385,0.0037326904472358238,0.6829982610237819,0.24174199496632354,0.03940355876998587,0.3726574807778222,0.6828747295647846,0.0,0.02859635261325553,0.009793991215840363
2,EOG,MRY,2018-12-31,0.004119565217391304,0.018049889895671637,0.021914151307200563,0.006610071717762065,0.00101614542170035,0.18049341056435328,0.28326955353581995,0.1292553657311033,0.40972308475211816,0.15330305531216448,0.0587501634422141,0.307586449950029,0.5723811422461799,0.031756384050779185,0.013660192605251613,0.5010064914693888,0.4300001293025421,0.46874623948857874,0.5008535788477856,0.5018253141639005,0.4640309112748007,0.3351357316265725,0.3638133465037094,0.9896901563693323,0.43475669051125604,0.28763431895039454,0.3307617485622337,0.37797443342690873,0.22931559497413156,0.7771936658928337,0.7753291754992149,0.9075725697712875,0.48874034848727294,0.49584966851705,0.12033993630573248,0.459771447650299,0.322547725664871,0.4183488960067977,0.9845329290426804,0.44440124501390066,0.7265615324605671,0.7265615324605671,0.5278576885299575,0.017131857089098965,0.5168128190219579,0.6168715278930685,0.001582247399667245,0.006253280400236747,0.06111482398239824,0.397502900757077,0.0,0.0,0.00211838654633804,0.004524801508421803,0.10986053545993835,0.009694047236503855,0.0,0.0012822234821921487,1.1298493413537448e-06,0.1967874476227449,0.008324005594373168,0.008161174573200149,0.004609538089707896,0.008161174573200149,0.5689517391830757,0.8328551414948828,0.0035096825316084613,0.4231479167981156,0.0037703530986918023,0.022003507008859117,0.02253893834284905,0.9754165741866566,0.0037337846422014933,0.6829710008120391,0.2383363796349614,0.04022951001847362,0.3726457240941475,0.6828746718570115,0.0,0.027425300695205143,0.0064620969031803305
3,EOG,MRY,2017-12-31,0.0036521739130434784,0.018049889895671637,0.021839729764379746,0.008179205714983108,0.0006774302811335668,0.17575729305668727,0.26790159736361535,0.128550821907975,0.39390764135024864,0.14394386099147238,0.058810681453142534,0.3083575824522645,0.5418274491023298,0.03168446637368751,0.013660192605251613,0.4969694201114892,0.4146971906867689,0.45392439643429405,0.4967745945207884,0.49775427077959367,0.4640309112748007,0.3351357316265725,0.36374540408752026,0.9896915511464326,0.45528640858405217,0.28763431895039454,0.33336343871986657,0.37797443342690873,0.22890640184931832,0.7771967612252988,0.7750049944959984,0.9088831251431042,0.48857211348811574,0.4847369896907217,0.11897127388535031,0.45508287179301243,0.31960906690801877,0.4034518937200885,0.9845295137756479,0.44621763568234013,0.726558606987006,0.726558606987006,0.527865691731238,0.01669520535431244,0.5163352739410985,0.6168690613307277,0.0016612676297978583,0.005156875718896222,0.05010185185185185,0.3973183735187623,0.0,0.0,0.0011521599952854322,0.0038249384214056664,0.10042823099438089,0.0037127048521850897,0.0,0.000721960281105922,1.1298493413537448e-06,0.19130100916924733,0.008077547662904964,0.00717479686332833,0.004344907958238867,0.00717479686332833,0.568952126558953,0.8327162608133682,0.003096010494878058,0.42354020232611944,0.0037938984913296406,0.021939578633636495,0.027807983981328825,0.975417361490855,0.0037572698024402524,0.6830554218578597,0.2335653908863282,0.043559183925263784,0.3730043029462249,0.6829243005418281,0.0,0.017782002754791058,0.0025211288338695455
4,EOG,MRY,2016-12-31,0.003641304347826087,0.018049889895671637,0.021032571499138255,0.007662983370969808,0.0007903353279891612,0.1729308640663195,0.2589949035494637,0.12873066063694877,0.38430268549848673,0.13845570213868766,0.058490641419889106,0.30854981326600395,0.5580944112799037,0.031283501233347846,0.013660192605251613,0.4792119211370931,0.40516596412285466,0.4447381615829548,0.47883273677742777,0.47984734213933206,0.4640309112748007,0.3351357316265725,0.363664395822064,0.989675293275858,0.48089017462655165,0.2879980656737125,0.33662273130903786,0.37797443342690873,0.2311713450016512,0.7770433063435442,0.7760234627343557,0.9092313074007173,0.48925066422738694,0.47869012846946873,0.11673458598726115,0.4566771000462296,0.3228638738592754,0.39484092168125196,0.9845251845639166,0.44778145775413997,0.72654546267177,0.72654546267177,0.5276881661755611,0.016457961809426994,0.5165089589872421,0.61685795317585,0.001817141210416882,0.004220761164528125,0.06705879858819215,0.39732132570770246,0.0,0.0,0.002177668217652306,0.0029853036086917167,0.10059273896914962,0.0016557880784061696,0.0,0.0005222497426179854,1.1298493413537448e-06,0.18720219712902303,0.008504495374933373,0.007046400489846413,0.004344651925374454,0.007046400489846413,0.568953404899348,0.8326349912682213,0.0031573129100083528,0.42038147517193514,0.003809897859619602,0.02187269927585553,0.025973640139613664,0.9754175783221752,0.0037755152810954396,0.6823588040435953,0.23001429551174632,0.04254431855011623,0.3722812669002328,0.6829967757339922,0.0,0.018357407025801763,4.6560575457290104e-05
5,EOG,MRY,2015-12-31,0.0036521739130434784,0.018049889895671637,0.020740396626991366,0.00536537702044953,0.00101614542170035,0.17439859590699214,0.2605106651833505,0.16355622951211923,0.3599260818327099,0.14016306722118693,0.05826286350759099,0.30738501393929835,0.5365300374214816,0.03176611860100079,0.013660192605251613,0.46266794565505925,0.381855564750403,0.42252888544776274,0.4621170013556611,0.46316414881294227,0.4640309112748007,0.3351357316265725,0.3636069060852886,0.989658991818499,0.4455779928466232,0.28763431895039454,0.33177477755594625,0.37797443342690873,0.22740079571008476,0.7773521601268332,0.7767987707506224,0.9093798814460529,0.4897757508443496,0.4826111498810468,0.11710312101910827,0.45026939753502726,0.3184173777463353,0.3713152576400662,0.9844923306571108,0.4458154841049196,0.7265326434091518,0.7265326434091518,0.5277816581177927,0.016550796240034343,0.5158229208141816,0.6168470692539124,0.00173108297809705,0.004109442527387853,0.06172671433810047,0.39717394256089533,0.0,0.0,0.0009971659018887737,0.002355953069723942,0.09473743915227975,0.0048705816195372745,0.0,0.0008936527357097029,1.1298493413537448e-06,0.18535277294493288,0.008192900816767856,0.00648634524263607,0.0041442409882364774,0.00648634524263607,0.5689533467929664,0.8325940257013416,0.002947286542217596,0.42217010536942395,0.003783828142170153,0.02085707697537601,0.017342415335766553,0.9754168290925241,0.00374727971344475,0.682760191511774,0.23239639231620288,0.037191731528568965,0.37253403559923814,0.6827577039718316,0.0,0.014057264947995184,4.6560575457290104e-05
6,EOG,MRY,2014-12-31,0.002777173913043478,0.018049889895671637,0.020654724432140437,0.006978477091022658,0.0006774302811335668,0.17859169313856316,0.2905161562519678,0.13496026846601106,0.4131713656938282,0.15447535511100688,0.058548713851021415,0.30643990321392883,0.5863904753419165,0.03245233556147027,0.013660192605251613,0.4985761577258139,0.4330634056565552,0.4718694078824791,0.4983980133225401,0.49937452911917296,0.4640309112748007,0.3351357316265725,0.36400149473315613,0.9896885872450946,0.41552205975173573,0.28763431895039454,0.329160505378587,0.37797443342690873,0.2381475523265871,0.776605939641017,0.7757952095744153,0.91160111430534,0.48917792052546055,0.49864283901665346,0.11335203821656051,0.4569073384155646,0.3226417857947427,0.4236485465443201,0.9845353822626616,0.4443459446391877,0.7265603744606158,0.7265603744606158,0.5278456837280368,0.017266535918927437,0.5165391496394348,0.6168705447178697,0.0015371648067608165,0.0079861636905759,0.08914084845984598,0.397279707044108,0.0,0.0,0.002830365298638401,0.004225437623195957,0.1141536258197812,0.002916914363753213,0.0,0.001054291938347682,1.1298493413537448e-06,0.19384629713062573,0.008922910484474552,0.008360358178544785,0.0046691890246755,0.008360358178544785,0.568952760886952,0.8328288896587428,0.003814524891672729,0.4232518139945738,0.003769122378054113,0.020792618284372632,0.022486294893115676,0.9754167271301771,0.003732637071871645,0.6829936560756165,0.24030968432766775,0.039997532624938666,0.3726398457523102,0.6828685202084052,0.0,0.029370090994870014,4.6560575457290104e-05
7,EOG,MRY,2013-12-31,0.0019891304347826088,0.018049889895671637,0.020536820639581618,0.006360677956851089,0.0004516201874223778,0.176783827934641,0.2794766272748263,0.12860119517622567,0.4061781240793151,0.14900179869432686,0.058115305455337905,0.30733417495134396,0.5770345369091637,0.03199919716509445,0.013660192605251613,0.49510899876927533,0.4264929961123036,0.46541690025380605,0.4948948582407615,0.4958781939590978,0.4640309112748007,0.3351357316265725,0.36392832597726016,0.9896881513772507,0.43001188722911843,0.28763431895039454,0.33058937632229807,0.37797443342690873,0.23191923385384725,0.7773620406545496,0.7752654055061469,0.9136495280738799,0.48896725711953354,0.49445650753370346,0.11542828025477707,0.4570815664874893,0.32199513475272606,0.41564926296322524,0.984534997443841,0.4467583706031669,0.7265577537238841,0.7265577537238841,0.5278438648186548,0.017000268564202985,0.5165599279118263,0.6168683023884689,0.001538020010249421,0.0062939517795124345,0.0731884740557389,0.401794293120474,0.0,0.0,0.001800387612473246,0.0039600975678146955,0.1023213542237318,0.006093408579691517,0.0,0.0008404350875098849,1.1298493413537448e-06,0.18976096383053367,0.008465408906800458,0.007353044392571689,0.004299873104777315,0.007353044392571689,0.5689528577309213,0.8327215005951784,0.0033741970382465646,0.4233965970513387,0.0037723204550396414,0.02071440688172762,0.02041868341386334,0.9754168065059283,0.0037358840731925337,0.6830256203635676,0.23611254763553077,0.03888598420016577,0.3726574807778222,0.6828743833181463,0.0,0.02208179234948971,4.6560575457290104e-05
8,EOG,MRY,2012-12-31,0.0018206521739130435,0.018049889895671637,0.020339706175297272,0.004577398860975486,0.0006774302811335668,0.1747359541494944,0.2720712999307319,0.13118193836288372,0.39637795623565963,0.1446755500981106,0.05797997530206543,0.30675798222081957,0.5711393616073417,0.03247556082169594,0.013660192605251613,0.48725731315910137,0.41710539881214065,0.45648960968520597,0.48696165624725696,0.48796043627656155,0.4640309112748007,0.3351357316265725,0.3639100337882862,0.9896836619384594,0.43269156322322744,0.28763431895039454,0.33082241663935164,0.37797443342690873,0.2251372521268733,0.7778277466357134,0.7774583123832662,0.9141099549698527,0.49043362903039484,0.4878184837430611,0.11431484076433121,0.45152825593657187,0.32163732565538555,0.404780825797745,0.9845300429015262,0.44690221201498853,0.7265516589872986,0.7265516589872986,0.5279249881770891,0.016792257633543875,0.5159532733948252,0.6168631795282226,0.0016417888617742593,0.00580406937139156,0.05978773606527319,0.40204179353192887,0.0,0.0,0.0012086906091703699,0.0039551743993760935,0.09132120161530155,0.001670208065552699,0.0,0.0010193625878456005,1.1298493413537448e-06,0.18596131785002612,0.008198788626449039,0.006574393500011304,0.0039859880447575225,0.006574393500011304,0.5689532208958062,0.832623294381554,0.0030461575580600364,0.4249035270364061,0.0037690594945178806,0.020555425895072525,0.014581803183709366,0.9754164780322915,0.0037326637595537344,0.683354743488617,0.23288943219094327,0.03536653272618244,0.3727221425380329,0.6828809793166051,0.0,0.019467284144767522,0.0028774209163778012
9,EOG,MRY,2011-12-31,0.0017282608695652173,0.018049889895671637,0.01997158940194712,0.0037329470383164333,0.0006774302811335668,0.17243019882460844,0.2704550492223085,0.12508934510563968,0.39920590756099955,0.1422744304648838,0.05776419929457534,0.30667410972594816,0.5723445894774357,0.03220199046183204,0.013660192605251613,0.4897710996886991,0.4198029515460274,0.45909416080456106,0.4895015409672983,0.4904953763639726,0.4640309112748007,0.3351357316265725,0.3640511449603713,0.989686233558738,0.4382424258363139,0.28763431895039454,0.33125666199827175,0.37797443342690873,0.21486343979493955,0.7908126757639243,0.7755080816978872,0.914463861398733,0.4903213525680464,0.48573008723235533,0.11862070063694267,0.4511333345419496,0.32078000663981754,0.4046664820083055,0.9845328809403279,0.4463837785567509,0.7265537007240547,0.7265537007240547,0.5278667830768672,0.016685391548107886,0.5159042579830301,0.6168649043969924,0.0013028767651489413,0.0056775073425128705,0.05563935872753942,0.40164937870309414,0.0,0.0,0.0008595058811553905,0.003502747335048173,0.08330394903661038,0.0016189146850899743,0.0,0.0008812073827606272,1.1298493413537448e-06,0.18481474345161883,0.0077510453222959345,0.005973682058701724,0.003585429606090816,0.005973682058701724,0.568952770571349,0.8326029703793811,0.0028188377074017837,0.42352775148800137,0.0037671640050685926,0.020401265208543164,0.011802842351270642,0.9754162405503694,0.0037310091232641853,0.6830564401732074,0.23226461254278302,0.03329631450553058,0.3726574807778222,0.6828718153222458,0.0,0.017645510449768444,0.0
10,EOG,MRY,2010-12-31,0.0016576086956521738,0.018049889895671637,0.01907009289907475,0.003463844347971762,0.0007903353279891612,0.16953443905165663,0.2597293129867131,0.11931724212188644,0.39210830826094334,0.13606350655921806,0.05756777000250208,0.3045496291620641,0.5659812224350692,0.03251119517523439,0.013660192605251613,0.4852803108183113,0.41298181144241297,0.45287602422957646,0.4849641286220046,0.48596679742633814,0.4640309112748007,0.3351357316265725,0.3640720503191987,0.9896826594424186,0.4446477067115506,0.2862335999146228,0.33227238713906854,0.37797443342690873,0.20582985013602556,0.7778180265368138,0.7790721352710637,0.9148182257613148,0.49142936513980645,0.47979889611419513,0.1172852229299363,0.447323407572585,0.3213258727605437,0.3956818600234086,0.9845303796179942,0.4463226761755107,0.7265501353031522,0.7265501353031522,0.5281578085779767,0.016388304665813383,0.5154428737806973,0.6168619117496768,0.0013585833366732349,0.004648240588741108,0.049626157407407404,0.4020436039335089,0.0,0.0,0.0010913862704286775,0.0027583290229727065,0.07309904678426647,0.0023733933161953725,0.0,0.0006203906238343205,1.1298493413537448e-06,0.18052435486714477,0.007556558016262904,0.005200585708932915,0.0032189559573080934,0.005200585708932915,0.5689534872167219,0.8325060079523481,0.0025699904522084763,0.42853715271205334,0.003777979973300549,0.01927479726640006,0.010347713077161447,0.9754163528380173,0.003741613028947746,0.6841401710175018,0.23077785667609133,0.03237807729844267,0.3728691010839662,0.6828968143295279,0.0,0.013705877249113369,0.001556973187506281
11,EOG,MRY,2009-12-31,0.0015489130434782608,0.018049889895671637,0.018927179211124665,0.0036870858755957215,0.0006774302811335668,0.16808152360033538,0.2573165550681136,0.11320226473332855,0.3941060138024623,0.13403814435216152,0.05730787670403642,0.3037951975172269,0.566850625918831,0.03216136100575563,0.013660192605251613,0.4871431598252854,0.41485820683234637,0.4547973112291583,0.486846317770864,0.48784532234043587,0.4640309112748007,0.3351357316265725,0.3642262273405509,0.9896864950794443,0.4616662213338944,0.28763431895039454,0.3340462457164993,0.37797443342690873,0.19965385038763347,0.7776879282033861,0.777004274484092,0.9150975653191543,0.49017214035670187,0.4804772053925456,0.11165898089171974,0.4528577126333633,0.32182255087562595,0.395859348641928,0.9845362000026553,0.4474428864982473,0.7265517199346644,0.7265517199346644,0.5279053439557642,0.016282064993539385,0.5160901968821225,0.6168632398986295,0.00072749596205516,0.002733589623326298,0.048309554913824715,0.4010113561553654,0.0,0.0,0.0009532949738957598,0.002005289108539885,0.06315337929847079,0.0018277835796915165,0.0,0.0003905089449575506,1.1298493413537448e-06,0.18010838196352605,0.006766338074124237,0.004357503947775369,0.0025866254911840214,0.004357503947775369,0.5689520297149837,0.8324976719358319,0.0021696165074761814,0.4243896355185396,0.003789667327677438,0.019148720688229166,0.01094252689632231,0.9754164735149723,0.0037533734008551854,0.6832424944977179,0.23077230539793864,0.03231866884647839,0.3727338992217075,0.6828952562196557,0.0,0.009975494289773651,0.00026185458153514724
12,EOG,MRY,2008-12-31,0.0012608695652173913,0.018049889895671637,0.018749753387893017,0.002522742967512862,0.0007903353279891612,0.16751658971119063,0.2683457903906299,0.11219058215490632,0.40658868930175257,0.13764815780380346,0.05727102351146517,0.3025000789016885,0.5778124025482246,0.03263912093117679,0.013665307960555186,0.4962664108689882,0.4270354245864474,0.4666989851898163,0.49606428661991747,0.49704318962748095,0.4640309112748007,0.3351357316265725,0.36457639210091014,0.9896964328662834,0.44566682095518617,0.28763431895039454,0.3321964087130129,0.37797443342690873,0.19615786825179665,0.7781150368986279,0.7767539597302837,0.9157858905538453,0.4900103666535176,0.48590404123711345,0.11624503184713375,0.4534315243369985,0.3216696769807801,0.4067013157949543,0.9845454356543488,0.444593496917684,0.7265595211974938,0.7265595211974938,0.5278282221979701,0.016483937075210967,0.5161573266852334,0.6168697512782356,0.0004934074159042821,0.0031330167398126124,0.04552871745507884,0.39780269708689925,0.0,0.0,0.0004785701466069845,0.0018979662393382895,0.053441523579958995,0.0016278317802056554,0.0,0.00028046433207502125,1.1298493413537448e-06,0.17835690257875064,0.006480413535369002,0.0038362386298537916,0.0021868317050052007,0.0038362386298537916,0.5689518263426482,0.8324499317015612,0.001928163707026217,0.4228127536963426,0.0037649001977642297,0.018938027610514874,0.007405063050655746,0.9754160779268791,0.0037284915852537426,0.6828991600160013,0.23012432630904703,0.02983158815688483,0.3726045757012862,0.6828539201418254,0.0,0.011433744021344207,0.00026185458153514724
13,EOG,MRY,2007-12-31,0.0008967391304347827,0.018049889895671637,0.01850702817213524,0.003381976487247186,0.0004516201874223778,0.1669896769444543,0.2573463445351693,0.10919167085397076,0.39713056986492157,0.13319331953203095,0.05696029766661017,0.30237173215506813,0.5692514589922929,0.03178482073688106,0.013737130782199028,0.4897652839112913,0.41789567008887396,0.4579392770046745,0.4894956648103537,0.4904570829236954,0.4640309112748007,0.3351357316265725,0.36447186530677306,0.9896926844028265,0.4584602671996634,0.28763431895039454,0.3339971107601538,0.37797443342690873,0.19204832444842826,0.7780484495026707,0.7764079477515382,0.9165792352507186,0.4897887264889175,0.48040920856463126,0.11298815286624203,0.4518721042310633,0.3207979954074595,0.39678024266607803,0.9845419722849638,0.4469758249728031,0.726554005460884,0.726554005460884,0.5278380443086326,0.016244187877677545,0.5159681911288498,0.6168651372542763,0.0003082173660604765,0.0032165790032050207,0.034263086725339204,0.40231754032258066,0.0,0.0,0.00010745866047343904,0.002146823042179927,0.040810053373820224,0.003974594312339331,0.0,0.00015267155070798703,1.1298493413537448e-06,0.17475188184154247,0.006036535623313495,0.0029073584705094084,0.001675468854037402,0.0029073584705094084,0.5689516278125111,0.8323462475342263,0.00148044139885671,0.423372915220729,0.003790251246228167,0.018665480759898115,0.009783984712092433,0.9754169155669197,0.003753818195556677,0.6830203395423836,0.2263888240089545,0.031280009449665566,0.3726574807778222,0.6828823181369397,0.0,0.007006491112002863,0.0
14,EOG,MRY,2006-12-31,0.0005978260869565217,0.018049889895671637,0.018378785942575776,0.002366208585664483,0.0004516201874223778,0.1665267080769791,0.2570296677231796,0.10721412078577752,0.3982695720879572,0.1327140862756229,0.05663560053915753,0.30227652411761613,0.5700511872410566,0.03187455559074197,0.013787152721646153,0.4907786626125148,0.41909453308852057,0.45910592779983683,0.4905195644329143,0.49145790544420975,0.4640309112748007,0.3351357316265725,0.3645894579501773,0.9896958226513021,0.46651502209131074,0.28763431895039454,0.3348855770434161,0.37797443342690873,0.1881412306772971,0.7777736915614443,0.7754712725975803,0.9171790520772382,0.48918766338282343,0.47944177319587633,0.11362261146496815,0.4532641309898265,0.3202811725601635,0.3969039373883199,0.9845448103237654,0.44700507675571133,0.7265548993555832,0.7265548993555832,0.5278260395067118,0.016219883046992224,0.5161356604524833,0.6168658875721912,0.00019076785970181188,0.0025030765966475707,0.028576812889622296,0.399334512837393,0.0,0.0,0.0003271468025319372,0.0019672188087079575,0.031085347242874362,0.0029786110218508995,0.0,0.00016948568359171005,1.1298493413537448e-06,0.17227584137504875,0.0057234584258423135,0.0022612010760844417,0.0012819528507444376,0.0022612010760844417,0.5689513857025877,0.83227281119825,0.0011594385772162657,0.4230221465076661,0.0037787255923730175,0.018474154686929645,0.00677563052993826,0.9754166406557816,0.0037421734702716256,0.6829440109495035,0.2247621199671323,0.02923408426640671,0.3726222107267982,0.6828662003559288,0.0,0.007321236836111623,0.0
15,EOG,MRY,2005-12-31,0.0004076086956521739,0.018049889895671637,0.018151872453995452,0.002780096103772062,0.0002258100937111889,0.16624974315371807,0.25637942948300835,0.10568295527959227,0.3987207769018561,0.13225806944255902,0.05632031445474871,0.30278538740729055,0.5710847886131777,0.031444032816093086,0.013746010484746312,0.4905841164120756,0.41940418681631286,0.45932328184065285,0.49032299844927973,0.491279063202671,0.4640309112748007,0.3351357316265725,0.3646574003663664,0.9896965636266366,0.4786447086050915,0.28763431895039454,0.3361159653148187,0.37797443342690873,0.18558063247943893,0.778208746201612,0.7756832497341855,0.9176231714452896,0.48939648363797233,0.47872300079302144,0.11446286624203822,0.4560634523518161,0.32235292804097715,0.39652495595273307,0.9845463495990476,0.44692511785325756,0.7265548079345344,0.7265548079345344,0.5278216741241952,0.0161982926733422,0.5164791235191929,0.6168657927044089,0.0002562151157298282,0.0018971824851753828,0.0244447767693436,0.3993389668367347,0.0,0.0,0.000897121970689318,0.001985001689604975,0.023819354661991896,0.0015791894280205655,0.0,9.432118291281836e-05,1.1298493413537448e-06,0.1699904229535697,0.0056351953792081275,0.0018646582835462303,0.001059896032446296,0.0018646582835462303,0.5689519522398082,0.8322055408681414,0.0009680772443824955,0.42311826193030055,0.00378752928744554,0.018330578826988193,0.007898753983431492,0.975417538311634,0.003751149427347727,0.6829652694088428,0.2227716972159499,0.030049445284708893,0.3726280890686355,0.6828737196787563,0.0,0.00847715367178942,0.0008922517937038836
16,EOG,MRY,2004-12-31,0.0003097826086956522,0.018049889895671637,0.017768286034103895,0.0013515777377029548,0.0003387151405667834,0.16610225040642726,0.2509770869629101,0.10411912281961094,0.3941433054486693,0.13015732404882083,0.056232297795749696,0.30280174635737206,0.5665808014434,0.030673626745525307,0.013785963372670379,0.48752071719877416,0.4149281508874465,0.455020896560576,0.48722779495381974,0.488173045662056,0.4640309112748007,0.3351357316265725,0.3645554867420827,0.9896932946178079,0.4815250894172102,0.28763431895039454,0.33645113620787276,0.37797443342690873,0.1832240883143841,0.7783110620387672,0.7757675769387025,0.9177603225888518,0.4894213601836647,0.4757885709754164,0.11292732484076433,0.4540956136295652,0.32115480853216555,0.3915751760849373,0.984542501410842,0.4474396228695757,0.7265521567241197,0.7265521567241197,0.5278267670704646,0.016083492021187633,0.5162372431175081,0.6168635934967274,0.00028028852171759985,0.0011853579684411538,0.02019622066373304,0.39903940709348257,0.0,0.0,6.292340702524168e-05,0.0012923107889137103,0.019962759629983253,0.0015309085796915167,0.0,5.9737992569493144e-05,1.1298493413537448e-06,0.16754920568211973,0.005494266395433114,0.0013946296306094365,0.0009706579856151746,0.0013946296306094365,0.5689527899401429,0.8321330836833115,0.0007396840051324672,0.42309996424590407,0.0037771894374164857,0.01799415094534831,0.003770234240149533,0.9754167426181286,0.0037408924615313296,0.6829618990553911,0.22080863133172446,0.02759801537836665,0.37263396741047283,0.6828705515220163,0.0,0.0031821253104562758,0.0
17,EOG,MRY,2003-12-31,0.0002445652173913043,0.018049889895671637,0.017421872376663185,0.0008742426275338292,0.0004516201874223778,0.16588679278704788,0.24922616233916164,0.10331038690689828,0.39288500924032893,0.12934505775567376,0.05611437726498624,0.30268557677134295,0.5656390608990065,0.030327843722199377,0.013787579963511237,0.48658097444436404,0.41370544880912363,0.45386462158883417,0.4862782957681917,0.4872247135779155,0.4640309112748007,0.3351357316265725,0.3645946842898841,0.9896919870142764,0.4833264674942142,0.28763431895039454,0.3366769677284782,0.37797443342690873,0.1822403013004985,0.7777291112243551,0.7757608595091852,0.9179206248250947,0.48940941649816755,0.47516947184773994,0.11120547770700637,0.45402330212081937,0.32111144815211506,0.39013299150710384,0.984542501410842,0.44730182521455336,0.7265513440925749,0.7265513440925749,0.5278289497617229,0.016039559578093197,0.516228363513922,0.616862920797907,0.0002884165962367275,0.0007883541603850492,0.018117608635863584,0.3982773823238973,0.0,0.0,4.077431417772313e-05,0.0009561167576952801,0.016626168041446888,0.0018782937017994858,0.0,3.270915086316229e-05,1.1298493413537448e-06,0.16626340439247728,0.005415083216421626,0.0011421288117136016,0.0008626243696518421,0.0011421288117136016,0.5689535985872866,0.8320947115437924,0.0006177947672663947,0.42305991965844325,0.003771449068894708,0.01746429379966101,0.0023672134689121677,0.9754164309231058,0.0037348432535910434,0.6829519502045599,0.2198613700916802,0.026696804692145183,0.3726280890686355,0.6828649538680311,0.0,0.00214751146925805,0.0
18,EOG,MRY,2002-12-31,0.0002173913043478261,0.018049889895671637,0.017534074825287824,0.0007557616402074289,0.0004516201874223778,0.16583251260613363,0.24661322810184505,0.10267584882635848,0.3905801185619013,0.1283423658846614,0.056021953719621945,0.30271037820209357,0.5635886644094978,0.030010635045281488,0.013787579963511237,0.4849256642293492,0.41143778392683206,0.4516823325314773,0.48460580008387544,0.48555547389835785,0.4640309112748007,0.3351357316265725,0.36443266775897165,0.9896845772609314,0.48836143488323164,0.28763431895039454,0.337143380911231,0.37797443342690873,0.1815514145083424,0.7771672140120417,0.7761971880652327,0.9179751189355585,0.4896391685798412,0.4731472069785885,0.11077503184713376,0.4535431944331137,0.321136626103178,0.3877590749865672,0.9845362000026553,0.44672470687779525,0.7265498204084286,0.7265498204084286,0.5278991596638656,0.01597971624068414,0.5161670942491781,0.6168616495696237,0.0002978477636627618,0.0005637570214524217,0.015913549688302164,0.39700381624423964,0.0,0.0,4.8013586527051166e-05,0.0008772359246812588,0.012997339135062375,0.00269149662596401,0.0,2.82418943316274e-05,1.1298493413537448e-06,0.1652822183559463,0.005322231450646273,0.000917155639270252,0.0007677135228747045,0.000917155639270252,0.5689542958638657,0.832062293701785,0.0004929238944231678,0.4250735062149032,0.0037819865528947783,0.017532816916156744,0.0020546635790177643,0.9754166684050279,0.0037452247619238583,0.6833835807374029,0.21921879023544408,0.02657550815641053,0.3727632909308942,0.6828909916152279,0.0,0.0021385095929633527,0.0
19,EOG,MRY,2001-12-31,0.00021195652173913043,0.018049889895671637,0.017599450235733078,0.0007403735145341984,0.0004516201874223778,0.16587311203221503,0.24888191263827375,0.10295102648768932,0.3927871287128713,0.1292078371240636,0.05594940151900369,0.3023278628162643,0.5658198088831469,0.030152995467613082,0.013787141174568718,0.4864288037838751,0.4135808830501608,0.45380127358471034,0.48612454526835264,0.4870714473440861,0.4640309112748007,0.3351357316265725,0.36458423161047043,0.9896917254935701,0.48612472122869765,0.28763431895039454,0.3368192675586281,0.37797443342690873,0.18146276988882076,0.7766928637487497,0.7758039060310717,0.9179896710509577,0.48934967582280764,0.4750053195876289,0.11091286624203821,0.45467067625099333,0.32108727012595895,0.3898066668610439,0.9845419241826112,0.44669406503082315,0.7265511876610026,0.7265511876610026,0.5278282221979701,0.016029954576275974,0.5163104110510573,0.6168627914327494,0.000222636934473177,0.000612976984153573,0.014854223964063072,0.39694990536537195,0.0,0.0,6.408061910846452e-05,0.000734752601512341,0.011957887899325394,0.0010845115681233932,0.0,2.8156846361588157e-05,1.1298493413537448e-06,0.16522931309889932,0.005232916862794158,0.0008210708993039506,0.0006788827546429563,0.0008210708993039506,0.5689533177397756,0.8320602295453142,0.00043967189373119,0.4230200853891939,0.003768763043561357,0.017524633924972766,0.0020120145935806927,0.9754166625970462,0.0037320143592895565,0.6829427042616679,0.21912943924326633,0.02644204783279215,0.3726222107267982,0.6828621723533704,0.0,0.0014772892422155461,0.0
20,EOG,MRY,2000-12-31,0.00017934782608695652,0.018049889895671637,0.017777180130641213,0.0010345671881194574,0.0002258100937111889,0.1656988226402617,0.24855751558531516,0.10236032349915057,0.39288299600924925,0.12895202916167886,0.05584422544532959,0.3027459365630425,0.5658620973849512,0.030147666047188732,0.013787533775201498,0.48642067134824685,0.4136584990560915,0.4538100180935149,0.4861163284015878,0.4870630809963692,0.4640309112748007,0.3351357316265725,0.3646965979141678,0.9896928151631798,0.4899470018935409,0.28763431895039454,0.3373209440090587,0.37797443342690873,0.1809417213127644,0.7762241379310345,0.7756334214241755,0.9180535019207774,0.48919743105512253,0.47427568596352104,0.11307687898089172,0.45507353523267374,0.3211128729463005,0.3897436636496545,0.9845448584261179,0.44669406503082315,0.7265511612504774,0.7265511612504774,0.5278256757248354,0.01601362607318669,0.5163601368311395,0.6168627655597178,0.00022342529267693623,0.0006880967536600891,0.012879503575357535,0.39719021560237,0.0,0.0,6.181441211215313e-05,0.0010606619466279376,0.009880444990530451,0.0010845115681233932,0.0,2.480267378881246e-05,1.1298493413537448e-06,0.16476317378118818,0.0051964413758525665,0.000721795471806655,0.0006192348828801108,0.000721795471806655,0.5689537777486299,0.8320444837363392,0.0003826630329679976,0.42322565040906895,0.003782723188604928,0.017733716084976755,0.002844342571664866,0.9754178719479214,0.0037458652662940065,0.6829867801941091,0.218534777981224,0.027016790844186657,0.3726398457523102,0.682874112091613,0.0,0.002141280652473347,0.0
21,EOG,MRY,1999-12-31,0.00016304347826086955,0.018049889895671637,0.02138255799877772,0.00033201965738300287,0.0007903353279891612,0.16567102026034963,0.24589732793182342,0.10262953724307898,0.3898534403485434,0.12795272642568892,0.055972759630983804,0.3027673189206249,0.5632113199982179,0.029864026819216835,0.013666370291679178,0.4872515939091195,0.41337820562552263,0.45353739395419895,0.48695587761988823,0.48795206506185934,0.4640309112748007,0.3351357316265725,0.36452674187369505,0.9897109472654828,0.49211603197980225,0.28763431895039454,0.33768304776662,0.37797443342690873,0.18047629381516253,0.783158088443463,0.7756050406196661,0.9182742259648409,0.48940563008117904,0.47261385884218876,0.11053420382165605,0.4541135827312914,0.32115875289997986,0.3893495124602742,0.9845656386424285,0.44669406503082315,0.7265515370925668,0.7265515370925668,0.5278220379060715,0.015943133712023754,0.5162365327492212,0.6168630967345217,0.0002575777711668109,0.00048237238545121555,0.010893381004767142,0.39731309660961156,0.0,0.0,6.808800169295841e-05,0.000632467444265592,0.009136658892767144,0.0010845115681233932,0.0,2.807478253084854e-05,1.1298493413537448e-06,0.1643156382946518,0.005162836011978006,0.000627890606098357,0.0006048965319388456,0.000627890606098357,0.5689544459720182,0.832019502150335,0.00027675535857947276,0.422712137463983,0.003770550732662818,0.018086325811560718,0.0009317927905495367,0.9754160843801922,0.0037298526570403072,0.6828708724772703,0.21793609236602204,0.025905310885209313,0.3726045757012862,0.6828535565828552,0.0,0.0010872802403392515,0.0
22,EOG,MRY,1998-12-31,0.00016304347826086955,0.018049889895671637,0.023412844582698395,0.00032610697855289464,0.0007903353279891612,0.16570360726333733,0.24568572867907895,0.10175692101548106,0.3902796248515744,0.1279005133837667,0.05586099744142312,0.30241909946872864,0.5632724974384105,0.030122965855111306,0.013660192605251613,0.48477603706653155,0.41113407380589106,0.4514364346252738,0.48445461948835983,0.4854582802020772,0.4640309112748007,0.3351357316265725,0.3644535731177991,0.9896845336741471,0.48912770881548495,0.28763431895039454,0.3372107392949731,0.37797443342690873,0.1802472991461056,0.7773789517392372,0.7763478153605221,0.9182460121606838,0.48976017390991833,0.472488107850912,0.11046305732484077,0.45313547077112737,0.3211161474039499,0.38712015011475204,0.9845361037979501,0.44669406503082315,0.726549668040014,0.726549668040014,0.5279322638146168,0.01593540794969251,0.5161418761749936,0.6168615236542035,0.00029723575216376955,0.000862566585145231,0.011292445911257791,0.3971481237656353,7.86628440796747e-05,0.0,4.3265534634661175e-05,0.0007324705422271545,0.010472706569205967,0.0010845115681233932,0.0,5.905760880917921e-05,1.1298493413537448e-06,0.16458398969995602,0.005224810045140921,0.0007258459398398956,0.0007066110117520798,0.0007258459398398956,0.5689546687131476,0.8320213545984497,0.00029214059506158955,0.4245448503585926,0.003773730842923709,0.023327688466456265,0.0011806665441211072,0.9754162250624179,0.003736924892794024,0.6832630410374778,0.21778636475391275,0.02603551446564295,0.37277504761456887,0.6828846553017478,0.0,0.0013359109790353893,
23,EOG,MRY,1997-12-31,0.00016304347826086955,0.018049889895671637,0.02392581350093625,0.0004008493032514428,0.0006774302811335668,0.16561048129647343,0.24578045800885792,0.10141865264517981,0.3906327839727165,0.1278623320087374,0.0557431979789664,0.3018704171269265,0.5636889116585735,0.029960841345966167,0.013660192605251613,0.48509360747122277,0.41148890584188885,0.45186367343896855,0.48477548691640737,0.48577852296730356,0.4640309112748007,0.3351357316265725,0.3645946842898841,0.9896883257243884,0.4896991584262571,0.28763431895039454,0.3372852230400191,0.37797443342690873,0.17966660376468369,0.7767098408923617,0.776183688847592,0.9182349708703283,0.48960201719760643,0.47289113084853296,0.11044585987261146,0.4536835026906819,0.3211254609337639,0.38730924721867027,0.9845396633720404,0.44669406503082315,0.7265498813557945,0.7265498813557945,0.5278671468587436,0.015932609970902276,0.5161947986123666,0.6168617013156869,0.00019280521034847835,0.0009372061598936872,0.011706075815914924,0.3973134977781435,0.0007479903311034909,0.0,4.731979502345229e-05,0.0008173010298061261,0.00934122853699385,0.0010845115681233932,0.0,4.780591157995255e-05,1.1298493413537448e-06,0.1645853163826616,0.005153447009592114,0.0006549615467679709,0.000617360584468392,0.0006549615467679709,0.5689535501653019,0.8320202166660364,0.0002579710582233999,0.4236720297810588,0.0037824357210107236,0.02348976053197777,0.0014606352868183233,0.9754165406294285,0.0037449845727850527,0.6830799966008094,0.2177254462697093,,,,0.0,0.001529424205286162,
24,EOG,MRY,1996-12-31,0.00016304347826086955,0.018049889895671637,0.02430240627226855,0.0004777141280428503,0.0005645252342779723,0.16556411906645727,0.2456574673075712,0.10114736319479338,0.39070445232079565,0.1277807999407634,0.0557592597076604,0.3014796959654937,0.5637942041252728,0.02990799945415722,0.013660192605251613,0.4851806655566013,0.4115433680726163,0.45197750110755497,0.48486344884086097,0.48586631364800015,0.4640309112748007,0.3351357316265725,0.36465217402665956,0.9896898948486261,0.4906129812749842,0.28763431895039454,0.33750640960696093,0.37797443342690873,0.17924357220361373,0.7773972878092974,0.7760495614899553,0.9182292975805836,0.48957050051726303,0.4723651387787471,0.11044585987261146,0.45344494904171845,0.3210917065516819,0.3872498302670327,0.984540817828502,0.44669406503082315,0.726549932145266,0.726549932145266,0.5278605987849686,0.015928350361400723,0.5161733099716883,0.6168617427125372,0.00012122977628061667,0.0008860151652204987,0.011831935276861019,0.3974121646642528,0.001056514325332134,0.0,4.5061624222163286e-05,0.0009168635757821314,0.008215768755184774,0.0010845115681233932,0.0,3.095447695498426e-05,1.1298493413537448e-06,0.16455689688024777,0.005093300252693518,0.0005912290844864814,0.0005486296724283956,0.0005912290844864814,0.5689526640429827,0.8320187347075446,0.0002292877297431745,0.4237362188991945,0.003793826624431089,,,,,,0.2175586086866504,,,,0.0,0.0017673503031354727,
25,EOG,MRY,1995-12-31,0.00016304347826086955,0.018049889895671637,0.024312136565916215,0.00045406341272241716,0.0005645252342779723,0.16552407072818381,0.2453988749186625,0.10085977316775536,0.39064409556374935,0.12765438844392885,0.055761043447379685,0.3014550523381201,0.5636937675413195,0.029653032901383478,0.013660192605251613,0.485190849200029,0.41150955545786033,0.4519488992766734,0.4848737382111125,0.4858765829869662,0.4640309112748007,0.3351357316265725,0.36469398474431436,0.9896910716918044,0.4916048074900063,0.28763431895039454,0.33764975833606486,0.37797443342690873,0.17868954726297748,0.7775274522016496,0.7759441206402072,0.9182284834762255,0.4895209673375541,0.472270753370341,0.11044585987261146,0.4536399230111465,0.3211561760184018,0.3870704089835599,0.9845413950567329,0.44669406503082315,0.7265499382400026,0.7265499382400026,0.5278602350030922,0.015922963208207585,0.5161912467709322,0.6168617478871437,,,,,,,,,,,,,,,,,,,,,,0.42366105117042085,0.003797348102460098,,,,,,,,,,,,
26,EOG,MRQ,2021-06-30,0.0022391304347826086,0.018049889895671637,0.022044217966818963,0.006324292240973499,0.0020322908434007,0.1685679196041615,0.25355890934279296,0.10665063527384969,0.3949995089680294,0.1330385901691945,0.056272548972130076,0.30232496975435275,0.5656435158373055,0.029514507301866454,0.013660192605251613,0.48888245372716527,0.41570336272811126,0.4558406445762929,0.48860366906264324,0.4895992524310591,0.4640309112748007,0.3351357316265725,0.36395445767579443,0.9896910716918044,0.48700820534399325,0.28763431895039454,0.33712923507851844,0.37797443342690873,0.18966520419556226,0.7776645339071023,0.7757974098342632,0.9126364260818683,0.4892521377211845,0.476152260111023,0.1124203821656051,0.45601694479947547,0.32209438816847746,0.3940303978207537,0.9845350455461935,0.4468149401668077,0.7265526544609409,0.7265526544609409,0.527907162865146,0.016178623300055622,0.5164288649628958,0.6168640419626075,0.0013988098927389554,0.005617161937306666,0.0655596809680968,0.3973625740618828,0.0,0.0,0.005231562959569903,0.004744603907815942,0.11214371801092521,0.0013656812339331618,0.0,0.0007699079393026066,1.1298493413537448e-06,0.19948855936504434,0.008670264061465652,0.008870770300800522,0.004564516893034227,0.008870770300800522,0.5689518069738543,0.8329191038819295,0.0037923415274427,0.42360922876311863,0.0037775308051846038,0.022144061989954104,0.021702234970671547,0.9754163934938899,0.0037409547327895386,0.683071246298131,0.2401898304207455,0.0388586104240881,0.3726927508288462,0.6828821507843978,0.0,0.03760723620706485,0.002066528048871973
27,EOG,MRQ,2021-03-31,0.0020380434782608695,0.018049889895671637,0.022044217966818963,0.005497275240505792,0.0023710059839674837,0.16826088496829278,0.25234566864675384,0.10635154212427918,0.39393263041362747,0.1323521244955634,0.056191836767637636,0.3023775708800169,0.5654987303425847,0.0294751757858196,0.013660192605251613,0.48777238832983427,0.41466463230667117,0.45483452921667916,0.4874820789404387,0.4884798458139059,0.4640309112748007,0.3351357316265725,0.3639413918265273,0.9896895025675666,0.4866926151904061,0.28763431895039454,0.3371375785929259,0.37797443342690873,0.18944504725511474,0.7775041050903121,0.7747918066131149,0.9131452413056198,0.4886129391922824,0.4771387787470262,0.11267515923566879,0.4568659976975861,0.32123872120275554,0.3929682651416386,0.9845346607273731,0.44657318989483863,0.7265518621451847,0.7265518621451847,0.5279278984321002,0.016146592707039054,0.5165149971176807,0.6168633692637873,0.0014050522539696456,0.005430109328062358,0.06851622662266227,0.3973728604344964,0.0,0.0,0.004572594967734677,0.004332687801319936,0.11217110926763607,0.0011648457583547556,0.0,0.0008385431431939242,1.1298493413537448e-06,0.19927664628858288,0.008526564698887042,0.00869905469839381,0.004627312590587213,0.00869905469839381,0.5689516907610911,0.8329136788553078,0.003718933674305158,0.44795326729341495,0.0037819596028078216,0.022142480951862897,0.018863139103721806,0.975416204411816,0.0037453670962283355,0.6889898212622264,0.24005557748173836,0.03733011203688743,0.373409908533001,0.682905995636219,0.0,0.03357266032558594,0.0021797624625087934
28,EOG,MRQ,2020-12-31,0.0020380434782608695,0.018049889895671637,0.022028102167965018,0.0037795662367845944,0.0031613413119566448,0.16774470660478738,0.250388367162738,0.10622053334290431,0.3919491380156952,0.13122832311090815,0.05621794716579094,0.3025385566251118,0.5642323473069897,0.029620997381563315,0.013660192605251613,0.4861336711793239,0.4127375115294767,0.45295793775334026,0.48582634859020996,0.486827338829782,0.4640309112748007,0.3351357316265725,0.3639178732978465,0.9896864950794443,0.4874692089206817,0.28763431895039454,0.3373570750022349,0.37797443342690873,0.188982151562328,0.7776574184172282,0.7758012324673078,0.9131304602233699,0.4892705486924668,0.474763641554322,0.11254407643312102,0.45482664213175733,0.3216425881060316,0.39098330577342005,0.9845327847356228,0.446601353801523,0.7265506838294449,0.7265506838294449,0.528042489723162,0.016094308088451376,0.5163082799461968,0.6168623860885885,0.001589462008659615,0.004693066211040013,0.06612119545287862,0.3973934331797235,0.0,0.0,0.004493572383347933,0.0036586432634173804,0.11190893581054642,0.0015866002570694086,0.0,0.0009385118097312782,1.1298493413537448e-06,0.19845748649721934,0.008549266783059126,0.008611032414807176,0.0046597315076166,0.008611032414807176,0.5689517972894573,0.8328933548531349,0.0036839889123729086,0.4205122510358172,0.0037677119901700458,0.02213545586236001,0.012965459046107054,0.975415813341042,0.0037312048329328417,0.6824040424776281,0.23935034517562873,0.033754218151114256,0.37222248348185943,0.6828984936257234,0.0,0.03178855351778142,0.007615014317076175
29,EOG,MRQ,2020-09-30,0.0020380434782608695,0.018049889895671637,0.022008299500033638,0.002723622440587053,0.004177486733656995,0.1674666788693253,0.2479587288260112,0.10569188021917546,0.38976013534626686,0.1301176154804951,0.05630854661533371,0.30254173899321446,0.563114358266138,0.029581626534000413,0.013660192605251613,0.4842999734549579,0.4106678346996302,0.4509692451650567,0.48397361337325545,0.4849782105068478,0.4640309112748007,0.3351357316265725,0.36374540408752026,0.9896806980371214,0.4927039343572481,0.28763431895039454,0.3377174850263715,0.37797443342690873,0.18823497035744052,0.7775063322197687,0.7758029554008267,0.9131925102399063,0.48926003571639437,0.47505647264076134,0.11259942675159236,0.45660913351281285,0.3224047502361483,0.3887852825897711,0.984528503626244,0.44679952858696964,0.726549342987396,0.726549342987396,0.5258623449379752,0.016042566361270764,0.5164894238593528,0.6168612476752003,0.0015543721355915983,0.0034759092990273265,0.0662002773193986,0.3974352987162607,0.0,0.0,0.004140724489768584,0.0028047345663713766,0.11204200253564778,0.0011868974935732646,0.0,0.0009975097357544649,1.1298493413537448e-06,0.1981838265803106,0.008409840242535542,0.008435232674641262,0.004638992335065005,0.008435232674641262,0.5689516859188927,0.8328871623837228,0.003612012244024401,0.4196220581740173,0.0037592945796772357,0.0220923683126373,0.009325419795568805,0.9754155590805058,0.00372277152539256,0.6822213314716488,0.23915818069475087,0.03170295920129958,0.37156410919607796,0.6828762876746567,0.0,0.027629561944839103,0.007262487278821343
30,EOG,MRQ,2020-06-30,0.0020380434782608695,0.018049889895671637,0.02200620900725777,0.0038394510608331265,0.002709721124534267,0.16723349984057817,0.24365987279863982,0.10605244897470868,0.38491996178878485,0.1283551973935901,0.05636940361752101,0.3025616748198412,0.5606094355593174,0.029357181237679032,0.013660192605251613,0.4801129370882502,0.4059625712241503,0.44644609416080455,0.47974310709722723,0.48075594015554884,0.4640309112748007,0.3351357316265725,0.3627523995432179,0.9896455670889093,0.49175257731958766,0.28763431895039454,0.3371089722578146,0.37797443342690873,0.18641002657608782,0.7776739708963253,0.7764476999172724,0.913196122827995,0.48968682694833615,0.4714861221252974,0.1129936305732484,0.4529349734255508,0.320153822440212,0.3837547848035888,0.984494110444156,0.44669406503082315,0.7265462956191033,0.7265462956191033,0.5277241805813235,0.015960172150029962,0.5161164805087374,0.6168586603720456,0.0015545838556766728,0.0035767976593297376,0.06573912495416208,0.3974538141869651,0.0,0.0,0.0032714023963933557,0.0023840250422436484,0.11439162062326849,0.005077201156812339,0.0,0.0010095044836692976,1.1298493413537448e-06,0.19860984487606648,0.008387723099298191,0.008470742932123276,0.004851270255071648,0.008470742932123276,0.5689516229703125,0.8328981976817776,0.003627576378605147,0.42602263023955245,0.00376244773985117,0.022084865377027845,0.013140776521859542,0.975415821730349,0.0037259028800910613,0.6835933536990396,0.23958082835680872,0.03378710275452313,0.37284558771661686,0.6828770436464835,0.0,0.024930810277322864,0.0019374620487785546
31,EOG,MRQ,2020-03-31,0.001559782608695652,0.018049889895671637,0.02196820004769658,0.0027221063690921537,0.0033871514056678332,0.16888282692300124,0.2553178984488151,0.11581484937668987,0.39003115821050094,0.13393176685466054,0.05622412164943461,0.30232496975435275,0.5634605960707444,0.02961283609198359,0.013660192605251613,0.4845531986775743,0.4109924401113726,0.4513151956542441,0.48422946758604546,0.4852335666241616,0.4640309112748007,0.3351357316265725,0.36399104205374244,0.9896816133595935,0.47879234167893964,0.28763431895039454,0.3362913078458834,0.37797443342690873,0.19101759682974007,0.7775512900364269,0.7758054546600324,0.9144681608873737,0.489308613093216,0.4794068199841396,0.1129936305732484,0.45675722223732995,0.3228591528699426,0.38983601504479704,0.9845218173992366,0.44669406503082315,0.7265495258294936,0.7265495258294936,0.5330313943759323,0.016221511721213402,0.5165048743695926,0.6168614029133896,0.001442125637318714,0.008074865712977542,0.06871460166850019,0.3974828731895984,0.0,0.0,0.003928161773963264,0.003499244946762993,0.11619392227143954,0.007348288881748072,0.0,0.0009883439518956745,1.1298493413537448e-06,0.20053864208237543,0.008708763173548498,0.009050923536533336,0.004766912659222298,0.009050923536533336,0.5689517440252743,0.8329493781768328,0.003882744699950022,0.4229432351147286,0.0037545423810105374,0.022085188471765403,0.009317202346203967,0.9754155171339707,0.0037180567015567484,0.6829270149960004,0.24140480657871752,0.0316860400496861,0.3726222107267982,0.6828548146123076,0.0,0.0351997711571207,0.005954601492712658
32,EOG,MRQ,2019-12-31,0.001559782608695652,0.018049889895671637,0.02197526971417496,0.006348549384891893,0.0013548605622671335,0.169142082245919,0.25309511555173064,0.10782769243653242,0.3936279718594042,0.13331818378151572,0.05631441439260031,0.30221174583136085,0.5653950082416358,0.029543907610111476,0.013660192605251613,0.48757702164627525,0.4144228494832209,0.45462837079698415,0.48728468395540947,0.48828283511627224,0.4640309112748007,0.3351357316265725,0.36381857284341623,0.9896879334433288,0.4829958868083316,0.28763431895039454,0.3366893804940553,0.37797443342690873,0.1903761224072589,0.7776501330615481,0.7758051047101113,0.9144592820617192,0.48931705359427236,0.47693958445678036,0.11314745222929937,0.4556144544457437,0.3220012469419293,0.39298122316032374,0.9845312454603405,0.4466835488939925,0.7265517199346644,0.7265517199346644,0.527906071519517,0.016192654954884263,0.5163887291546866,0.6168632657716611,0.0014421963840793284,0.006781709605011893,0.06882507104877154,0.39746901744568797,0.0,0.0,0.002751019927084924,0.00471521468485942,0.11881777379517602,0.004177940231362467,0.0,0.001144860566091225,1.1298493413537448e-06,0.20084144806081727,0.008544651980672315,0.008928395555788572,0.004790869345472294,0.008928395555788572,0.5689515600217325,0.8329568673599251,0.0038289560049621562,0.4232741497886302,0.003769212211677302,0.02207416467674557,0.021716741742858377,0.975416341867385,0.0037326904472358238,0.6829982610237819,0.24174199496632354,0.03940355876998587,0.3726574807778222,0.6828747295647846,0.0,0.02859635261325553,0.009793991215840363
33,EOG,MRQ,2019-09-30,0.001559782608695652,0.018049889895671637,0.021962080605207226,0.005625383281824804,0.0014677656091227277,0.16940877725424436,0.2524557712894356,0.10713078745244418,0.39346819898401025,0.13329228165763718,0.05639973526396927,0.30218347272631635,0.5652574397469594,0.029505461053175676,0.013660192605251613,0.48747374212698186,0.4142727464721957,0.4544886284122009,0.4871803321857353,0.4881786864980094,0.4640309112748007,0.3351357316265725,0.36373233823825313,0.9896877590961913,0.48079016410687986,0.28763431895039454,0.3363801472034328,0.37797443342690873,0.19028788665062668,0.7774760583583414,0.7758049867193334,0.9144892767191594,0.48930222196361445,0.47774675337034106,0.113928025477707,0.4557497711183024,0.321957283840344,0.3928127939087733,0.98453086064152,0.446687477335912,0.72655163867151,0.72655163867151,0.5279097093382809,0.01619161093294761,0.5164025813362809,0.6168631967769103,0.0014465803423519652,0.006686656169385909,0.06796133571690502,0.3974789232225148,0.0,0.0,0.0021551802652480107,0.004552954983058838,0.11819061966848754,0.0038495742287917734,0.0,0.0011610092359111322,1.1298493413537448e-06,0.19992178804774635,0.008528735646063882,0.008788344166166832,0.0047771689069220245,0.008788344166166832,0.5689516326547095,0.8329337911491247,0.0037711719191049035,0.4231319746776874,0.003766050068141049,0.02203236229234206,0.019206743167591578,0.9754162050571472,0.0037294879253850837,0.6829675403421848,0.2409830242819894,0.03798598212565735,0.3726457240941475,0.6828696166560929,0.0,0.026136519419107836,0.009897735170184246
34,EOG,MRQ,2019-06-30,0.0011956521739130434,0.018049889895671637,0.021947675209533533,0.007061102987494684,0.00101614542170035,0.16959670016493272,0.25370970802460063,0.10710615414064556,0.3948199296485104,0.13390034369562265,0.056286915744529736,0.30245405291673244,0.5659166592417695,0.0294657755534844,0.013660192605251613,0.48859693042785785,0.41557524114924105,0.4556972462249972,0.48831518145377584,0.48931132644817144,0.4640309112748007,0.3351357316265725,0.36378460163532167,0.9896893718072135,0.479872196507469,0.28763431895039454,0.33617011949104564,0.37797443342690873,0.19034618106335804,0.777656389785403,0.7745918725806862,0.9154823568321163,0.48857774048882,0.4797289230769231,0.11290229299363057,0.45737420269098406,0.3211708903283943,0.39408695326199694,0.9845323037120971,0.4466904992143116,0.7265524716188433,0.7265524716188433,0.527865691731238,0.01622034241664435,0.5165679195550538,0.6168638867244182,0.0014502331640654574,0.006665223290562498,0.06545936468646865,0.39747029295589204,0.0,0.0,0.0015891374751882477,0.0047158644990381166,0.11631278858645465,0.0035518356362467863,0.0,0.0012729263962041747,1.1298493413537448e-06,0.19904207453997946,0.008457063717263414,0.008598166010026845,0.004739587468806004,0.008598166010026845,0.5689516471813049,0.8329117999436486,0.0036919796941116824,0.4231633541548363,0.0037708831170686174,0.022019512689339944,0.024094251895278432,0.9754165799946385,0.0037343006040552237,0.6829742900607287,0.2402587507036148,0.04123104809160468,0.37265160243598483,0.6828751219776412,0.0,0.02437838790494886,0.009981776336555325
35,EOG,MRQ,2019-03-31,0.0011956521739130434,0.018049889895671637,0.021938058942764554,0.00721422620847954,0.00101614542170035,0.1691155808268679,0.25205341197707853,0.1062669167085397,0.3936850163826121,0.13291462835211215,0.05616497574598255,0.302585503129767,0.5653629660979195,0.029540544765489472,0.013660192605251613,0.4875717367697097,0.4144669804408355,0.4546119251582665,0.487279344211132,0.48827750576737755,0.4640309112748007,0.3351357316265725,0.36375324359708056,0.9896883693111727,0.475400936250789,0.28763431895039454,0.3358622056676302,0.37797443342690873,0.18912416851441244,0.7775433157805335,0.7758051999072163,0.9154719006792683,0.48934148774955055,0.476306959555908,0.11293547770700636,0.4528303737343522,0.3202924997727443,0.39269226475843777,0.9845317264838662,0.44669370240541517,0.7265517199346644,0.7265517199346644,0.5278838808250573,0.016174280168799137,0.5161054698002906,0.6168632657716611,0.0016847113375964842,0.006846507979050107,0.06262257059039236,0.3974873580480579,0.0,0.0,0.0015560886231587067,0.005159687583088104,0.11398285698633569,0.009950212885604113,0.0,0.0012843198400501335,1.1298493413537448e-06,0.19774837370069684,0.008611271971209894,0.008577010359212687,0.004860966446834663,0.008577010359212687,0.5689519328710144,0.8328789057578402,0.0036844659739692534,0.4232055860516962,0.003772158754517901,0.022009208966563654,0.024605198863268056,0.9754166787303289,0.0037355727169014895,0.6829833557708158,0.23915733797449518,0.0413218200485886,0.37265160243598483,0.6828768416692779,0.0,0.02661456243289264,0.009279241725749081
36,EOG,MRQ,2018-12-31,0.0011956521739130434,0.018049889895671637,0.021930913258367046,0.006610071717762065,0.00101614542170035,0.16933254212869475,0.25375639470204236,0.10721832603546048,0.39478586542152866,0.13371045649195987,0.05624756047361922,0.3026148019567619,0.5654048647926225,0.02949212766923579,0.013660192605251613,0.4888137648109269,0.41559716224020965,0.4556929981823677,0.48853426701647273,0.4895299854963838,0.4640309112748007,0.3351357316265725,0.3638290255228299,0.9896900256089792,0.4848590889964233,0.28763431895039454,0.3365763056110135,0.37797443342690873,0.1897589753266972,0.7776321084121323,0.7753359492425126,0.9154865545577123,0.4890505608603424,0.4778215003965107,0.11293292993630573,0.45698967841743793,0.32167841545496584,0.39395260389115433,0.9845325442238599,0.44456309682098394,0.7265526341451523,0.7265526341451523,0.5278627814762269,0.016211697915008847,0.5165290268913467,0.6168640247139198,0.001582247399667245,0.006253280400236747,0.06111482398239824,0.397502900757077,0.0,0.0,0.00211838654633804,0.004524801508421803,0.10986053545993835,0.009694047236503855,0.0,0.0012822234821921487,1.1298493413537448e-06,0.1967874476227449,0.008324005594373168,0.008161174573200149,0.004609538089707896,0.008161174573200149,0.5689517391830757,0.8328544534427259,0.0035069990601290226,0.4231479167981156,0.0037703530986918023,0.022003507008859117,0.02253893834284905,0.9754165741866566,0.0037337846422014933,0.6829710008120391,0.2383363796349614,0.04022951001847362,0.3726457240941475,0.6828746718570115,0.0,0.027425300695205143,0.0064620969031803305
37,EOG,MRQ,2018-09-30,0.0010054347826086957,0.018049889895671637,0.021939845363863928,0.00966950399446937,0.0006774302811335668,0.16924298248721675,0.2548167922587687,0.10643497116742037,0.39649799123284735,0.13402991447717538,0.056202200214694464,0.30281500184103943,0.5660713124248229,0.029471694946649453,0.013660192605251613,0.4902529115084824,0.4171730800727543,0.45717535390004266,0.48998835496864424,0.4909812426386847,0.4640309112748007,0.3351357316265725,0.3639021942787259,0.9896923792953359,0.4789725857353251,0.28763431895039454,0.33598420691915737,0.37797443342690873,0.1897309367677816,0.7773570579242399,0.7758072003872243,0.915982776604676,0.4893430827509667,0.4781525678033307,0.11356694267515924,0.45561426711022884,0.3216476173726084,0.3954681297717873,0.9845352860579564,0.44667514807204156,0.7265536702503718,0.7265536702503718,0.5278438648186548,0.016226523026509346,0.5163889067467584,0.6168649043969924,0.0016736878478598547,0.006800264107116933,0.059063932434910156,0.3973167174127716,0.0,0.0,0.0017413523844729997,0.005044723339697019,0.10936053545993835,0.007869095437017994,0.0,0.001144363706897838,1.1298493413537448e-06,0.1953170237431685,0.008451760365493895,0.008089809665039136,0.004563531562170184,0.008089809665039136,0.5689520393993807,0.8328162400844737,0.003474916667774841,0.42315250173512525,0.003785445147387555,0.021976844783111266,0.03293027103748106,0.9754174608718768,0.003748720848277583,0.6829720371506673,0.23709894603355353,0.04666408239209313,0.3726986291706835,0.6828975010520272,0.0,0.026122208604926086,0.008937549805449124
38,EOG,MRQ,2018-06-30,0.0010054347826086957,0.018049889895671637,0.021897313338114954,0.00943148076977014,0.0006774302811335668,0.16937670984833278,0.2522497092840201,0.1060178199698514,0.39407963199385765,0.1331914282805346,0.05614407935623946,0.302810057335227,0.5654119147324809,0.029759896630482785,0.013660192605251613,0.48786761746181134,0.4147869525114864,0.45488394894068057,0.48757829674348746,0.4885758763007018,0.4640309112748007,0.3351357316265725,0.36372449872869284,0.9896886744186634,0.4786294340416579,0.28763431895039454,0.3361695032629101,0.37797443342690873,0.18863792046044253,0.7775460525074082,0.7758072204992886,0.9160051899152822,0.4893609383810907,0.4773659540047582,0.11247152866242038,0.4547664228283433,0.32150178642710625,0.392872689861423,0.9845313416650456,0.44654569080140216,0.7265519434083392,0.7265519434083392,0.5278667830768672,0.016187810693098187,0.5163027745919734,0.6168634382585381,0.0016736810853018548,0.006524372675801534,0.05482518564356435,0.39733673469387754,0.0,0.0,0.0013851922391785937,0.004508886567943548,0.1062537956455728,0.008740078727506427,0.0,0.001001169782605452,1.1298493413537448e-06,0.19338295898324465,0.008340838948275234,0.0077181545719399395,0.004416546362128979,0.0077181545719399395,0.5689521604543423,0.8327679970428578,0.0033217202626486474,0.42330813721160115,0.003790520747097734,0.021963954555976464,0.03210087532697182,0.9754175518635915,0.0037538270914507068,0.6830055784756613,0.2353788132687194,0.04620870427676588,0.37275741258905687,0.6829106815073901,0.0,0.022948559157511143,0.008935186037064455
39,EOG,MRQ,2018-03-31,0.0009130434782608696,0.018049889895671637,0.021883630112672924,0.007979084277656366,0.0006774302811335668,0.16870324315174992,0.2513482336642808,0.10527371808676093,0.39367634743636676,0.13233232034653403,0.0560683309523233,0.30277092209773293,0.5651731857263776,0.02951128211755061,0.013660192605251613,0.4875870025821087,0.414437555492341,0.4545544689325654,0.48729476851355175,0.48829290004185605,0.4640309112748007,0.3351357316265725,0.3637767621257614,0.9896890666997228,0.48115524931622133,0.28763431895039454,0.33638019368872735,0.37797443342690873,0.18706406566967024,0.7774538719966783,0.7758072365889402,0.916248352710713,0.48936084168840827,0.47613058207771614,0.11270611464968153,0.45431516480993,0.32108629391468624,0.39211816746708433,0.9845320632003342,0.44669950441194245,0.726551740250453,0.726551740250453,0.5278660555131144,0.01614759496809824,0.5162567782453975,0.6168632657716611,0.0016736712015632395,0.005348171909723386,0.052418225155848916,0.39736988767281106,0.0,0.0,0.0011278719351961234,0.0040553603264116625,0.10320887789760366,0.0067274060089974295,0.0,0.0008724563942644842,1.1298493413537448e-06,0.1922935565959281,0.008162094330057873,0.007393034166594918,0.004454933805997127,0.007393034166594918,0.5689520926635637,0.8327403955659485,0.003183789828605484,0.4233271499779166,0.003788544407387576,0.02195541494565384,0.027147212788396564,0.9754172227446234,0.0037518788906581732,0.6830096337137719,0.23442512406265567,0.04315789910036168,0.3728044393237555,0.6829101448251007,0.0,0.019441325119573114,0.0025701027177674703
40,EOG,MRQ,2017-12-31,0.0009130434782608696,0.018049889895671637,0.021868236484050643,0.008179205714983108,0.0006774302811335668,0.1684007254677358,0.25056312000167924,0.1065398272437968,0.39189668687337625,0.13180671440559785,0.05624837566688459,0.30280790068907476,0.5407614046420456,0.02927735792586194,0.013660192605251613,0.4962352759477787,0.4127195557164654,0.4528982871196532,0.49603282845522906,0.4970139487798468,0.4640309112748007,0.3351357316265725,0.3637767621257614,0.989713257365055,0.48554049021670526,0.28763431895039454,0.33664778449894217,0.37797443342690873,0.18915797833026687,0.7775666912028387,0.7758160429915488,0.9162421451649833,0.4893708583657567,0.47541807454401275,0.11250394904458598,0.4548960348323196,0.32109859338626745,0.3910125248351612,0.9845304277203468,0.44637519642209594,0.7265580787765019,0.7265580787765019,0.5278256757248354,0.016123081333025584,0.5163160939973525,0.6168686128648475,0.0016612676297978583,0.005156875718896222,0.05010185185185185,0.3973183735187623,0.0,0.0,0.0011521599952854322,0.0038249384214056664,0.10042823099438089,0.0037127048521850897,0.0,0.000721960281105922,1.1298493413537448e-06,0.19130100916924733,0.008077547662904964,0.00717479686332833,0.004344907958238867,0.00717479686332833,0.568952126558953,0.8327153081257663,0.003091955471309128,0.42354020232611944,0.0037938984913296406,0.021939578633636495,0.027807983981328825,0.975417361490855,0.0037572698024402524,0.6830554218578597,0.2335653908863282,0.043559183925263784,0.3730043029462249,0.6829243005418281,0.0,0.017782002754791058,0.0025211288338695455
41,EOG,MRQ,2017-09-30,0.0009130434782608696,0.018049889895671637,0.02184592522478822,0.007332479785081705,0.0007903353279891612,0.1678705652192739,0.24877378728406205,0.10555191060703946,0.3907312626663929,0.130733676000543,0.05620569505314899,0.3029583399084741,0.5637327816634738,0.029431832455135965,0.013660192605251613,0.48499018316079057,0.41159180911496723,0.4517912579754309,0.4846709888523695,0.48567422833948193,0.4640309112748007,0.3351357316265725,0.3637271118985463,0.9896831824838312,0.4849492951819903,0.28763431895039454,0.336880849846539,0.37797443342690873,0.18859936154487272,0.7773424494649228,0.775002787532129,0.9162674078408426,0.4888378574955226,0.4742565043616178,0.11321503184713376,0.45361978444329626,0.3195346890944949,0.3897747195761466,0.9845301391062313,0.44650489544300737,0.7265498305663229,0.7265498305663229,0.5281705409436502,0.01607275947567882,0.5161857414167088,0.6168616616437052,0.0016612507234028586,0.004566627022680827,0.06867384030069673,0.3973403554970375,0.0,0.0,0.001168111842404858,0.0030452517201264165,0.10066126015433018,0.003982306394601542,0.0,0.000513295832649468,1.1298493413537448e-06,0.1870965664739267,0.008399539534109761,0.0069276194686051455,0.004281827637910386,0.0069276194686051455,0.5689532741599894,0.8326073633277675,0.00298849273760187,0.6259911245714767,0.0037928384545760103,0.02191030226393331,0.02489617252712819,0.9754174776504908,0.0037561311280044337,0.7344220055603624,0.22979084200855338,0.041720917500865984,0.37364504220649436,0.6829288479143438,0.0,0.014988465668145287,4.6560575457290104e-05
42,EOG,MRQ,2017-06-30,0.0009130434782608696,0.018049889895671637,0.02183285014269917,0.006860981550167942,0.0007903353279891612,0.1678808587522585,0.2486159316555068,0.10584697198095375,0.390343222419627,0.13068373832237043,0.05617978643550692,0.3029933459576035,0.5636656791553436,0.029508823897797683,0.013660192605251613,0.48461619730205846,0.4112375977311714,0.45144548138272544,0.48429312026371996,0.4852970953831777,0.4640309112748007,0.3351357316265725,0.36370620653971886,0.9896819184670841,0.48683482011361245,0.28763431895039454,0.33706407461485743,0.37797443342690873,0.18890069349436242,0.7776381292112565,0.7758072888803077,0.9162674078408426,0.4893781744934972,0.47462767961934976,0.11220388535031847,0.4545149188565282,0.3213254281299033,0.38951222702148847,0.9845292251615325,0.4467470083403844,0.7265495664610708,0.7265495664610708,0.529339008330605,0.016070546149173113,0.5162772013336454,0.616861437410765,0.001817257214296419,0.004509280042882508,0.06783986523652365,0.39733696099407506,0.0,0.0,0.0022440311161471267,0.002760917265887855,0.10009610418068839,0.0032564267352185087,0.0,0.0005016308321272437,1.1298493413537448e-06,0.18705997318142076,0.008515189988670693,0.007037842607499018,0.004245142570086876,0.007037842607499018,0.5689534484791342,0.832606807593333,0.0030378686128235467,0.4149140850106211,0.003792146735677455,0.02190348124425585,0.023288137241330706,0.9754173143816693,0.0037554550400581664,0.6811606073449015,0.22978499957944862,0.040764422132440734,0.3683545345528933,0.6829330663525532,0.0,0.01834741277398783,0.004291966442981519
43,EOG,MRQ,2017-03-31,0.0009130434782608696,0.018049889895671637,0.02181369362708033,0.007393880680625136,0.0007903353279891612,0.16776721066905997,0.24885033479565918,0.10630158160457492,0.39025322072333474,0.13068079654700052,0.05608883185226438,0.30302232917784444,0.5633477190715908,0.02994506940803138,0.013660192605251613,0.48464256859480204,0.4111428491384141,0.45134990042356216,0.4843197653438405,0.48532368859081304,0.4640309112748007,0.3351357316265725,0.36376369627649424,0.9896820056406529,0.4868214706501157,0.28763431895039454,0.3371191906791025,0.37797443342690873,0.1881246717302763,0.7774449162939057,0.7758073063107636,0.9162564683135319,0.4893602983268743,0.47405566693100715,0.1123859872611465,0.45396621917650937,0.32101674380184886,0.38921511727194347,0.9845279263980131,0.4466727305693219,0.7265495867768595,0.7265495867768595,0.52903343155444,0.01607058791005058,0.5162210822389814,0.6168614546594527,0.0018172007729469581,0.004346530313690018,0.06729391272460579,0.39732488479262673,0.0,0.0,0.0021062411769275486,0.00292096539672094,0.10019901704518776,0.0030272935411311055,0.0,0.0004687993315527969,1.1298493413537448e-06,0.1871071924010464,0.008496313688704675,0.007025422567085726,0.004339752712263536,0.007025422567085726,0.5689534097415464,0.8326085806508143,0.003035185141344108,0.4186944286705786,0.0038006719465180916,0.021886913318185305,0.025077851636236388,0.9754174957197675,0.0037639506188566567,0.681987452372355,0.22990403502869455,0.04184554764011818,0.371881539655294,0.6829559936507831,0.0,0.01840545318482045,4.6560575457290104e-05
44,EOG,MRQ,2016-12-31,0.0009130434782608696,0.018049889895671637,0.021726881163442565,0.007662983370969808,0.0007903353279891612,0.16755651995921952,0.24842432778489115,0.10697009068504294,0.389301364176093,0.1303591202749565,0.056128735966165445,0.30301733207090636,0.5626513788034035,0.02959533356734274,0.013660192605251613,0.4838178913583822,0.41013609092554765,0.45038356595438117,0.48348652628909716,0.48449207168095937,0.4640309112748007,0.3351357316265725,0.363774148955908,0.9896789545657461,0.49545176730486007,0.2879980656737125,0.3381288679638845,0.37797443342690873,0.18885571857652814,0.7774336013438273,0.7755876597735918,0.9162714274811102,0.4892265646459037,0.4737596986518636,0.11195745222929936,0.45616315714730316,0.3222113121939459,0.3884358284426636,0.9845256655874423,0.44709549135742777,0.7265489976189896,0.7265489976189896,0.5275564771363092,0.01605609688556981,0.5164469793542114,0.6168609544475094,0.001817141210416882,0.004220761164528125,0.06705879858819215,0.39732132570770246,0.0,0.0,0.002177668217652306,0.0029853036086917167,0.10059273896914962,0.0016557880784061696,0.0,0.0005222497426179854,1.1298493413537448e-06,0.18720219712902303,0.008504495374933373,0.007046400489846413,0.004344651925374454,0.007046400489846413,0.568953404899348,0.8326136087242685,0.003056414382381447,0.42038147517193514,0.003809897859619602,0.02187269927585553,0.025973640139613664,0.9754175783221752,0.0037755152810954396,0.6823588040435953,0.23001429551174632,0.04254431855011623,0.3722812669002328,0.6829967757339922,0.0,0.018357407025801763,4.6560575457290104e-05
45,EOG,MRQ,2016-09-30,0.0009130434782608696,0.018049889895671637,0.02082177380941188,0.007330205677839355,0.0007903353279891612,0.1674002472022453,0.24756735584895362,0.1062753451534946,0.3889085698470659,0.1299217336574891,0.05606590151496808,0.3030050497080638,0.562310665122288,0.029326797641532835,0.013660192605251613,0.4835879244190256,0.40979685708621033,0.45005962165094004,0.4832541718276067,0.48426016956576756,0.4640309112748007,0.3351357316265725,0.3637114328794257,0.9896776033754303,0.4915672101830423,0.28763431895039454,0.337660259244912,0.37797443342690873,0.1894373574876948,0.77737928203386,0.7758073371492623,0.9163586638512223,0.4893658731306438,0.4736164345757336,0.11218732484076432,0.4549109400919153,0.32165371968113066,0.388262055205908,0.9845267238391988,0.4466935210927112,0.7265487741453147,0.7265487741453147,0.5276365091491142,0.016042106991618635,0.5163224873119344,0.6168607647119448,0.0018170785267061903,0.003618881704579718,0.05634169875320865,0.3972586816984858,0.0,0.0,0.001439452627969709,0.0023329981085164833,0.08860830894207142,0.0038415006426735215,0.0,0.0006410930902254517,1.1298493413537448e-06,0.18331427065395664,0.00812749321412968,0.00614590847895089,0.003974639126393668,0.00614590847895089,0.5689537438532406,0.8325362822472514,0.0027816865355864396,0.4207292994300377,0.0038117574156196145,0.020892626356596614,0.023733109061539966,0.9754178016068086,0.0037749904233476796,0.6824502631804477,0.2304082971551317,0.0412459037694226,0.3723400503186061,0.6830081210821723,0.0,0.01484639328438337,4.6560575457290104e-05
46,EOG,MRQ,2016-06-30,0.0009130434782608696,0.018049889895671637,0.0208026553027526,0.0063227761694786,0.0009032403748447556,0.16717241569340624,0.2466143699754413,0.10548386691551216,0.38848586720709943,0.12939297923017115,0.05609260111221418,0.3030116248487718,0.5622497549783935,0.029427171670484413,0.013660192605251613,0.4830929414319844,0.4093323290835898,0.449612347478294,0.4827540499156369,0.48376102128819365,0.4640309112748007,0.3351357316265725,0.36363826412352973,0.9896743343666016,0.49240395539659165,0.28763431895039454,0.33774382430942523,0.37797443342690873,0.1888551996351685,0.7775215918313422,0.7758073438532838,0.9163796270384409,0.48938150311769724,0.47280300079302146,0.11141910828025478,0.45437644769562213,0.3213419565329086,0.38765894294889686,0.9845258579968525,0.4473157862927596,0.7265484084611197,0.7265484084611197,0.5276958055949653,0.016016089964957195,0.5162651250727683,0.6168604542355662,0.0018170129819132682,0.0036451556166035713,0.05669201503483681,0.3972569947333772,0.0,0.0,0.0010791565209704508,0.002366927219684173,0.09083284681244033,0.002120661953727506,0.0,0.0007398069261873144,1.1298493413537448e-06,0.18377440517424065,0.00813165397483305,0.006212193827954435,0.004046761261368589,0.006212193827954435,0.5689536276404774,0.8325493023111434,0.0028142459895369658,0.42215521484005303,0.003801974534054332,0.02087869235501704,0.020457901027481164,0.9754173453575723,0.003765267211173072,0.6827569743562063,0.23086437218149702,0.03927096518915965,0.37253403559923814,0.6827626379864267,0.0,0.013286557921108857,4.6560575457290104e-05
47,EOG,MRQ,2016-03-31,0.0009130434782608696,0.018049889895671637,0.02077908974782466,0.005501065419243041,0.00101614542170035,0.16696374826308932,0.24529042631346948,0.10569082741128896,0.3869236356007107,0.12874293326011033,0.05611541038120375,0.3029401399189943,0.5605627478059428,0.02941281566712731,0.013660192605251613,0.4822279688216415,0.4078953080417561,0.44824315696641726,0.48188009713945756,0.4828887699181373,0.4640309112748007,0.3351357316265725,0.36342921053525556,0.9896663579850596,0.4903269093204292,0.28763431895039454,0.3374382407103907,0.37797443342690873,0.18989937255271974,0.7775042560821396,0.7762495531769686,0.9163718930470399,0.48965179852667734,0.4721319302141158,0.11250828025477706,0.45314064062703013,0.3210232729557859,0.3865467900684347,0.984520999659243,0.44675885410371086,0.7265477380400952,0.7265477380400952,0.5277401869838845,0.015984059371940626,0.5161322862031206,0.6168598850288722,0.0018169461366284228,0.003300012842417948,0.05979897781444811,0.39719664458525344,0.0,0.0,0.0009301641258896737,0.00202557212195494,0.09313588019846923,0.005424606362467867,0.0,0.0008041151280941794,1.1298493413537448e-06,0.18439551883978483,0.0081700779768289,0.006334339176313444,0.004146718482718593,0.006334339176313444,0.5689535356387065,0.8325668476411442,0.002872864933187822,0.42218394430773765,0.0037899458119093244,0.020863766555102654,0.017786660490934254,0.9754169646120993,0.0037533022337029468,0.6827631833763356,0.2314867833642816,0.03753309079975893,0.3725399139410755,0.682764692383147,0.0,0.012829365638862075,4.6560575457290104e-05
48,EOG,MRQ,2015-12-31,0.0009130434782608696,0.018049889895671637,0.020766736835967272,0.00536537702044953,0.00101614542170035,0.16727173352542682,0.24649077475283893,0.10555648075036489,0.38830025712219557,0.1294254066344979,0.05618387854427468,0.3027981957813898,0.5619511516015503,0.029513445350933188,0.013660192605251613,0.48313281691160503,0.409217404984182,0.4495355473391768,0.48279433938341804,0.4838012323206759,0.4640309112748007,0.3351357316265725,0.36358077438675435,0.9896746394740923,0.4879309804334105,0.28763431895039454,0.33719257665603863,0.37797443342690873,0.18739219386391157,0.7776206613442048,0.7761157744284486,0.9163653293306535,0.4895783411814134,0.47316039016653455,0.11215363057324841,0.4534321135374082,0.3210743402669365,0.38716037370409406,0.98452244272982,0.4463703614166566,0.7265484287769083,0.7265484287769083,0.527693622903707,0.01601792744356571,0.5161635424077436,0.6168604714842539,0.00173108297809705,0.004109442527387853,0.06172671433810047,0.39717394256089533,0.0,0.0,0.0009971659018887737,0.002355953069723942,0.09473743915227975,0.0048705816195372745,0.0,0.0008936527357097029,1.1298493413537448e-06,0.18535277294493288,0.008192900816767856,0.00648634524263607,0.0041442409882364774,0.00648634524263607,0.5689533467929664,0.8325932317950067,0.002943529682146381,0.42217010536942395,0.003783828142170153,0.02085707697537601,0.017342415335766553,0.9754168290925241,0.00374727971344475,0.682760191511774,0.23239639231620288,0.037191731528568965,0.37253403559923814,0.6827577039718316,0.0,0.014057264947995184,4.6560575457290104e-05
49,EOG,MRQ,2015-09-30,0.0009130434782608696,0.018049889895671637,0.020748872624973512,0.005517742205686935,0.00101614542170035,0.16762676594119894,0.24731057282592725,0.14197695786375708,0.36199342463552037,0.13000491787093826,0.05603815265906358,0.30273449581821055,0.538733661513788,0.0294426092905328,0.013660192605251613,0.46483390525833157,0.3838804985906023,0.4252062081044041,0.46430544800210666,0.4653483350043316,0.4640309112748007,0.3351357316265725,0.3636042929154352,0.9895997573785233,0.4823080580685883,0.28763431895039454,0.3361158365863107,0.37797443342690873,0.18664861379755,0.7774420663231604,0.7758413962599605,0.9163902867173785,0.4893930095469049,0.4747959777954005,0.11251273885350319,0.45337501850693596,0.3198876250400168,0.36247806800148286,0.984389247315552,0.44660026592529917,0.7265343093038186,0.7265343093038186,0.5278031212484995,0.01604678420989485,0.5161573266852334,0.6168484836463036,0.0016724880140116393,0.004359649122807017,0.06258870782911624,0.3971570626234365,0.0,0.0,0.0010295557859264794,0.0027799865585827,0.09499026436475763,0.0029781089331619537,0.0,0.0009851419704271795,1.1298493413537448e-06,0.18596035444688017,0.008184590163380138,0.006560124510646608,0.004122497339791097,0.006560124510646608,0.5689531966848139,0.832610327244751,0.0029796074653699496,0.42208930111258336,0.0037749615635613984,0.020836737421300308,0.017817478205520022,0.9754168310285181,0.0037383927153089467,0.6827427810228195,0.23300543643527713,0.03730400580400794,0.3725222789155635,0.6826708941688436,0.0,0.015319230393804973,0.00025675195577063803
50,EOG,MRQ,2015-06-30,0.0009130434782608696,0.018049889895671637,0.020733060897796057,0.006635844933175358,0.0007903353279891612,0.1677572536932724,0.2482802166201381,0.10589669920800134,0.3899491380156952,0.13046349699497722,0.055968457670484355,0.30273220766924414,0.5630402058181494,0.029686681013361565,0.013660192605251613,0.484530360288617,0.41087609368400185,0.4511393200647557,0.4842063920884008,0.48521053604976006,0.4640309112748007,0.3351357316265725,0.36369836703015856,0.9896816133595935,0.484159499263623,0.28763431895039454,0.3368491790577789,0.37797443342690873,0.18959014640436542,0.7775946718758848,0.7751370449477823,0.9163897270206324,0.4889573542486165,0.47402180174464714,0.11178745222929937,0.4531693694347,0.31962021824447967,0.3893454888517721,0.9845295137756479,0.4467582497280309,0.726549505513705,0.726549505513705,0.5339226599730802,0.01606966917074632,0.5161351276762681,0.6168613856647019,0.001664751127462968,0.005205319552860509,0.08787122983131646,0.39722882035878865,0.0,0.0,0.0018662656605350498,0.003180309539578767,0.11729397079309428,0.0028530888496143955,0.0,0.0009864997538085076,1.1298493413537448e-06,0.19333817053126076,0.00877963328405693,0.00814905876281073,0.004852787945396044,0.00814905876281073,0.5689526688851811,0.8328117942089985,0.0037040851321189293,0.42397917849706607,0.0037736859261121142,0.020827740390836895,0.021418422976032456,0.9754166684050279,0.0037371294983567106,0.6831506929185361,0.23974651427610166,0.039437652785159254,0.3726868724870088,0.682879536622279,0.0,0.020268960879797838,4.6560575457290104e-05
51,EOG,MRQ,2015-03-31,0.0009130434782608696,0.018049889895671637,0.020713828364258093,0.006949671732619567,0.0006774302811335668,0.16790490979873487,0.2473306773577381,0.10581556121838585,0.38900001339178103,0.13023031000481297,0.055984382188430715,0.3025444479511862,0.5624851539181182,0.029602000259312682,0.013660192605251613,0.4836856680904462,0.40987618850586605,0.4502083404065037,0.4833529302761062,0.4843587357519005,0.4640309112748007,0.3351357316265725,0.36353112415953925,0.9896783443507647,0.48003912265937304,0.28763431895039454,0.33596564617539265,0.37797443342690873,0.18964614489471782,0.7774901855312082,0.7771329863331817,0.9163848423944844,0.49022212106094976,0.47425391593973043,0.11198687898089171,0.45220698157162414,0.32120158169939805,0.3883940220673684,0.9845260023039103,0.4461688021274024,0.7265488554084693,0.7265488554084693,0.5276139546727783,0.01605826845119805,0.5160314139063827,0.6168608337066956,0.001794749600584012,0.006091887500418775,0.08781839017235056,0.39714209595128375,0.0,0.0,0.0028842158414833746,0.003096018728182103,0.11630218425707087,0.002687640584832905,0.0,0.0011402485788036584,1.1298493413537448e-06,0.19341519826338127,0.00896441448306026,0.008343467279519812,0.004818450441119468,0.008343467279519812,0.5689528722575168,0.8328146787353485,0.0037959791221148283,0.4235362904073864,0.0037717904366628262,0.020809156065058735,0.022411283752049215,0.9754167458447851,0.003735243568822386,0.6830550704038901,0.23988705931068394,0.03978626380412224,0.3726574807778222,0.6828736158047648,0.0,0.02599355769335054,0.0035851360016079287
52,EOG,MRQ,2014-12-31,0.0009130434782608696,0.018049889895671637,0.020695432027830477,0.006978477091022658,0.0006774302811335668,0.16842163137736527,0.2559972460695619,0.10979214222477449,0.3952479354337598,0.13381992231368242,0.0563636326948998,0.3024495029193625,0.5710674589031941,0.029714449063690643,0.013660192605251613,0.48665068172494513,0.41582976889325646,0.45594246924723525,0.48634872675138735,0.4873487000282285,0.4640309112748007,0.3351357316265725,0.36410602152729327,0.9896857105173253,0.4802062381653692,0.28763431895039454,0.3364683715247773,0.37797443342690873,0.19123665298548537,0.7775787422380764,0.775807453799236,0.9163755819574121,0.4893867621727958,0.47790146867565425,0.11234509554140128,0.4557294240641534,0.3223198020702003,0.39456878662795786,0.9845337467826741,0.44438226761755106,0.7265511307767945,0.7265511307767945,0.527886427298192,0.016236879724120964,0.516411460939867,0.6168627655597178,0.0015371648067608165,0.0079861636905759,0.08914084845984598,0.397279707044108,0.0,0.0,0.002830365298638401,0.004225437623195957,0.1141536258197812,0.002916914363753213,0.0,0.001054291938347682,1.1298493413537448e-06,0.19384629713062573,0.008922910484474552,0.008360358178544785,0.0046691890246755,0.008360358178544785,0.568952760886952,0.8328271959918951,0.0038070708042298425,0.4232518139945738,0.003769122378054113,0.020792618284372632,0.022486294893115676,0.9754167271301771,0.003732637071871645,0.6829936560756165,0.24030968432766775,0.039997532624938666,0.3726398457523102,0.6828685202084052,0.0,0.029370090994870014,4.6560575457290104e-05
53,EOG,MRQ,2014-09-30,0.0006793478260869565,0.018049889895671637,0.020675287279263044,0.007505311935500254,0.0004516201874223778,0.16909940246336252,0.2565377594928738,0.10721541286818366,0.39774554723281164,0.1345497649047895,0.05608635398758647,0.30244868760191473,0.570037221009489,0.029788942955083386,0.013660192605251613,0.4898314051980019,0.41827141465601214,0.45828811334738306,0.4895624725698068,0.4905561893451958,0.4640309112748007,0.3351357316265725,0.36401194741256987,0.9896909409314513,0.474238039133179,0.28763431895039454,0.33571017849161183,0.37797443342690873,0.19164689971851365,0.7773720533001152,0.7758074672072789,0.9169871524156002,0.48939857579379986,0.47861845836637595,0.11136458598726115,0.4546981541408703,0.32161814922989973,0.3970370330260785,0.9845372101520592,0.4468725976066723,0.7265536093030059,0.7265536093030059,0.527833678926116,0.016273545774536283,0.5163001107108975,0.6168648354022416,0.0015371330747578939,0.007748283024556936,0.08457024660799413,0.4015051534726794,0.0,0.0,0.0020186185245010192,0.004731587799402654,0.11432653899732349,0.006230639460154241,0.0,0.0010040121752883423,1.1298493413537448e-06,0.19385932533287273,0.008857914900512947,0.008297394829003487,0.0047138229812142595,0.008297394829003487,0.5689526834117766,0.8328283868513974,0.003782084703121289,0.4232704061244663,0.0037724372387497873,0.020771588651571915,0.02415932396072744,0.9754168626497522,0.0037358840731925337,0.6829978104417697,0.23973969002128637,0.0410902878403065,0.3726457240941475,0.682872386629199,0.0,0.026488921184777067,4.6560575457290104e-05
54,EOG,MRQ,2014-06-30,0.0006793478260869565,0.018049889895671637,0.02064164935005139,0.008857647708950658,0.0003387151405667834,0.1686714060218152,0.25354201633047163,0.1067837077979566,0.39488224160558527,0.13311349360121433,0.056037934736111454,0.3025055757193204,0.5676199492137033,0.02965625808569932,0.013660192605251613,0.48791405680639016,0.4156330221452154,0.4557446412971021,0.48762521822242594,0.4886227064331811,0.4640309112748007,0.3351357316265725,0.36393355231696706,0.9896888923525853,0.4734570271407532,0.28763431895039454,0.33538781966089576,0.37797443342690873,0.1909641615951943,0.7771154993110999,0.7758075503371452,0.9169892385580176,0.48938632320513137,0.4773436161776368,0.11001541401273886,0.4532594868819817,0.32025841537592037,0.39430647734325214,0.9845355265697193,0.44678719932309924,0.7265521262504367,0.7265521262504367,0.5278460475099132,0.01620259404372122,0.5161445400560694,0.6168635934967274,0.0015370984816727405,0.007430380135571265,0.0813116405390539,0.4019049127715602,0.0,0.0,0.0016824310025689037,0.004496238320438201,0.11032975551346869,0.011327803663239074,0.0,0.0009953715999462855,1.1298493413537448e-06,0.1920580463751289,0.008812766975906085,0.008009170190363821,0.004572619707788599,0.008009170190363821,0.5689529061529061,0.8327805142994043,0.0036566175032826313,0.42363640187603846,0.0037808366825179593,0.02073553234192171,0.02846271363173145,0.9754173550375419,0.0037442551094746066,0.6830765090960345,0.23810308846459927,0.043605703893615594,0.3726751158033342,0.6828846322186386,0.0,0.025621427719271606,4.6560575457290104e-05
55,EOG,MRQ,2014-03-31,0.0005108695652173913,0.018049889895671637,0.02061044399425165,0.007434435593113699,0.0004516201874223778,0.16856132032766108,0.25334071073235237,0.10685847510348623,0.3946123927541537,0.13295323857536004,0.05597279998708605,0.3024604702540635,0.5673459816456541,0.02977130277013637,0.013660192605251613,0.48769481889041727,0.4153238209763204,0.4554547144578363,0.48740370417329054,0.48840162362629336,0.4640309112748007,0.3351357316265725,0.3639413918265273,0.9896885872450946,0.47648042289080583,0.28763431895039454,0.3359425966208767,0.37797443342690873,0.1901761412778538,0.7773350697393504,0.775801169449506,0.917399445391406,0.48938133454726856,0.4784002315622522,0.11096452229299363,0.45513435884420034,0.321811806623218,0.39379894453168285,0.9845347088297256,0.4463860751843346,0.7265519637241278,0.7265519637241278,0.5278391356542618,0.01619511884665477,0.516347705386119,0.6168634555072258,0.0015370602472102026,0.007390557472612148,0.07864299138247158,0.4016602513989467,0.0,0.0,0.0022678303077059074,0.0042746781186216885,0.10564587409413202,0.009718147493573265,0.0,0.0009480894048134167,1.1298493413537448e-06,0.19085588664253114,0.008695374981675313,0.007729916850206756,0.004386718916325437,0.007729916850206756,0.5689529642592875,0.8327488109730982,0.003534489734618386,0.4234755925715608,0.003775608365648359,0.020725407365329254,0.023878015702663652,0.975417045278513,0.0037390776991492436,0.683042003525534,0.23707111038503095,0.04089499436223549,0.37266335911965953,0.682878059303289,0.0,0.026151405051896358,4.6560575457290104e-05
56,EOG,MRQ,2013-12-31,0.0005108695652173913,0.018049889895671637,0.020590641326320266,0.006360677956851089,0.0004516201874223778,0.168255198923017,0.25258878696920717,0.10640889622664082,0.39414834522225894,0.13243700404783354,0.05603901627965165,0.3025224869812214,0.5670010246358087,0.02942361216828217,0.013660192605251613,0.4873051666304689,0.41485251752049446,0.4549922036410611,0.48701000653448157,0.4880086924357314,0.4640309112748007,0.3351357316265725,0.3639570708456479,0.989688282137604,0.48017176520092575,0.28763431895039454,0.33626695074346674,0.37797443342690873,0.18968497114371533,0.7776025140139291,0.7752711950990921,0.9174079171648816,0.4890761621733092,0.4775550515463918,0.11205624203821656,0.4553895460739613,0.3211209276773681,0.3932133845378474,0.9845350455461935,0.44646748458842017,0.7265516589872986,0.7265516589872986,0.527843137254902,0.016169602950522926,0.5163754097493075,0.6168631967769103,0.001538020010249421,0.0062939517795124345,0.0731884740557389,0.401794293120474,0.0,0.0,0.001800387612473246,0.0039600975678146955,0.1023213542237318,0.006093408579691517,0.0,0.0008404350875098849,1.1298493413537448e-06,0.18976096383053367,0.008465408906800458,0.007353044392571689,0.004299873104777315,0.007353044392571689,0.5689528577309213,0.8327195158293412,0.0033653713987141878,0.4233965970513387,0.0037723204550396414,0.02071440688172762,0.02041868341386334,0.9754168065059283,0.0037358840731925337,0.6830256203635676,0.23611254763553077,0.03888598420016577,0.3726574807778222,0.6828743833181463,0.0,0.02208179234948971,4.6560575457290104e-05
57,EOG,MRQ,2013-09-30,0.0005108695652173913,0.018049889895671637,0.020559626015318334,0.006415256530667473,0.0004516201874223778,0.16823409619631324,0.2517621670409941,0.10649054865647357,0.3932084430715389,0.1321167145907122,0.05610026070042051,0.3027032244490032,0.5661119191874192,0.029601606944152214,0.013660192605251613,0.4867371220347982,0.4140307783151017,0.45417436434625275,0.4864360644865555,0.4874358677348077,0.4640309112748007,0.3351357316265725,0.3639074206184328,0.9896872360547788,0.47614630759520304,0.28763431895039454,0.3358792419321196,0.37797443342690873,0.18989794153260683,0.7773610308967028,0.7758075302250808,0.9174262853944589,0.48941623376012167,0.4775907121332276,0.11153414012738853,0.45426729152125506,0.3213015643093997,0.3924756729964221,0.9845340834991422,0.4469521938837181,0.726551212039949,0.726551212039949,0.5278515042380589,0.016154026143228035,0.5162537591801782,0.6168628345544686,0.0016420208695333333,0.006275235351268049,0.0697946461312798,0.40189148905529953,0.0,0.0,0.0018012019469021807,0.0043800845866861105,0.10017057318161186,0.004497790809768637,0.0,0.0008445173900717685,1.1298493413537448e-06,0.18876928364476248,0.008496783911660878,0.007250359424324645,0.004234353580026202,0.007250359424324645,0.5689530804720507,0.8326934227744682,0.003323389978235854,0.4242702589017183,0.0037741171275034215,0.020672233868554653,0.0205519732368242,0.9754168910443299,0.003737583188952232,0.6832114493970719,0.23525692777515383,0.03899228920896211,0.3727045075125209,0.6828851285054868,0.0,0.022732270099671378,0.0028774209163778012
58,EOG,MRQ,2013-06-30,0.0005108695652173913,0.018049889895671637,0.02052511388003677,0.00499014932546189,0.0005645252342779723,0.16837999078896093,0.25270531265086793,0.10590664106429307,0.39464705514735426,0.13257763232589995,0.055954599384973006,0.3027627952238178,0.5674092083574642,0.029756848437989154,0.013660192605251613,0.48768885349549945,0.4153925064866776,0.4554731019406019,0.4873976768455034,0.4883956080324725,0.4640309112748007,0.3351357316265725,0.3639387786566739,0.9896890231129385,0.4790681885125184,0.28763431895039454,0.3360578193629131,0.37797443342690873,0.1896106524508185,0.7776239454164544,0.7758075476555366,0.9174247335080266,0.48942471191142606,0.47720468517049963,0.11153452229299363,0.454738830119925,0.3213592299392536,0.39371554004240206,0.984536007593245,0.4464170796567146,0.7265519637241278,0.7265519637241278,0.5278391356542618,0.016177579278118966,0.5163050832889058,0.6168634555072258,0.0016419470015921033,0.006147442125364334,0.06694195773744041,0.401716353275181,0.0,0.0,0.0016795861895309808,0.004290734035735322,0.09618395968007012,0.004708828727506427,0.0,0.0009808865877859179,1.1298493413537448e-06,0.1879199324727407,0.008353527964258225,0.0069929981399881385,0.004151063638668784,0.0069929981399881385,0.568953041734463,0.8326712727877251,0.003210803441498503,0.42401825562075424,0.003768466592604833,0.020646458273994375,0.015966891818359582,0.9754164961015681,0.0037319609839253772,0.683158983627562,0.23459166240723606,0.03621776535585596,0.3726868724870088,0.6828769974802651,0.0,0.02299729943711159,0.0028774209163778012
59,EOG,MRQ,2013-03-31,0.00046195652173913043,0.018049889895671637,0.020475094089254242,0.0048533238730472045,0.0005645252342779723,0.16807660907799074,0.25132193698704897,0.10548457875720814,0.3934910319706452,0.1318315120139206,0.055933436644955085,0.3027700015780338,0.5661925201585958,0.029695746927810362,0.013660192605251613,0.4868926615024494,0.4142118148042791,0.45433776079296795,0.4865932187685916,0.487592716069812,0.4640309112748007,0.3351357316265725,0.3639100337882862,0.9896879334433288,0.48348529349884284,0.28763431895039454,0.3367338252033732,0.37797443342690873,0.1886019719771666,0.7775699752750883,0.7758075637451881,0.917540896023609,0.48942522446821163,0.47572699444885014,0.11164095541401274,0.4545999842879891,0.3215798003312004,0.392307360371205,0.9845347569320781,0.4470038075667835,0.7265513542504692,0.7265513542504692,0.5278445923824076,0.01614082970594872,0.5162901655548812,0.6168629380465948,0.001641870792765412,0.006304599819089417,0.06295825311697836,0.4019177090190915,0.0,0.0,0.001518886397668432,0.004471906634275875,0.09367015448668786,0.003624477827763496,0.0,0.0010406857552110532,1.1298493413537448e-06,0.18680103677137075,0.008301307857408693,0.006789888163600237,0.004051606740762698,0.006789888163600237,0.5689531918426155,0.8326421099616906,0.003125170884954628,0.424481123940522,0.003769535612720782,0.020621146705742256,0.015510107255856562,0.9754165212694892,0.003733055178891047,0.6832609503369409,0.23360727295078254,0.03600121247836613,0.3727103858543582,0.6828803791557654,0.0,0.022130613971345834,0.0028774209163778012
60,EOG,MRQ,2012-12-31,0.00046195652173913043,0.018049889895671637,0.020440391909174873,0.004577398860975486,0.0006774302811335668,0.16796978464275733,0.2501027056526941,0.1109921278683033,0.3880846137363962,0.131299766447409,0.056003607835540814,0.30270248803324395,0.5638857865193566,0.029783141556466476,0.013660192605251613,0.4820676222881827,0.4089991638435612,0.449340965456706,0.4817180858845445,0.48272707406578214,0.4640309112748007,0.3351357316265725,0.3638342518625368,0.9896742036062485,0.48098406269724386,0.28763431895039454,0.3363986721892786,0.37797443342690873,0.18765775031057855,0.777686993941453,0.77580783592846,0.9175294985625969,0.4894403170835433,0.4750997208564632,0.1110084076433121,0.4532840580498373,0.3206553895162023,0.3870198056505459,0.9845172476757424,0.44661144687537774,0.7265475653558919,0.7265475653558919,0.5277783840809052,0.01611447859226755,0.5161464935688583,0.6168597470393706,0.0016417888617742593,0.00580406937139156,0.05978773606527319,0.40204179353192887,0.0,0.0,0.0012086906091703699,0.0039551743993760935,0.09132120161530155,0.001670208065552699,0.0,0.0010193625878456005,1.1298493413537448e-06,0.18596131785002612,0.008198788626449039,0.006574393500011304,0.0039859880447575225,0.006574393500011304,0.5689532208958062,0.8326200658291255,0.003031130117775178,0.4249035270364061,0.0037690594945178806,0.020555425895072525,0.014581803183709366,0.9754164780322915,0.0037326637595537344,0.683354743488617,0.23288943219094327,0.03536653272618244,0.3727221425380329,0.6828809793166051,0.0,0.019467284144767522,0.0028774209163778012
61,EOG,MRQ,2012-09-30,0.00046195652173913043,0.018049889895671637,0.02036733868889826,0.004246137239339932,0.0006774302811335668,0.16775204000897487,0.2503280451711761,0.10542821166224009,0.3924762608361828,0.1312119050116622,0.05605357676134209,0.30253942454368526,0.5655065042099167,0.029729906349497057,0.013660192605251613,0.48622066652187557,0.41330843397381195,0.4535062457819752,0.4859142471204393,0.4869150662396698,0.4640309112748007,0.3351357316265725,0.3639100337882862,0.9896867566001506,0.4790513149589733,0.28763431895039454,0.3359423320122769,0.37797443342690873,0.1882790174710258,0.7776418096370534,0.7774599535277231,0.9175587045564403,0.49050022804070675,0.475763273592387,0.111628025477707,0.4533609804294818,0.32276676652741493,0.39134880020659524,0.9845342759085525,0.44681959385954306,0.7265508361978595,0.7265508361978595,0.5278576885299575,0.016110887156805455,0.5161546628041576,0.6168624982050585,0.0016399931425268974,0.006005485945927837,0.06176283461679501,0.4021601279624753,0.0,0.0,0.001525032747494716,0.003786053100400458,0.09268594750270001,0.0045994537275064265,0.0,0.0009816027812178272,1.1298493413537448e-06,0.18686721241703783,0.008244001276146945,0.006741759214321755,0.004087902909215388,0.006741759214321755,0.5689530949986462,0.8326475349883123,0.003119446145798492,0.4235836961322481,0.003767765890343959,0.020490314901990887,0.01348381664780119,0.9754163044381691,0.0037312671041910507,0.6830656771044592,0.23378096875626783,0.0345684689588488,0.3726692374614968,0.6828724847324131,0.0,0.021692146676355432,0.0
62,EOG,MRQ,2012-06-30,0.00046195652173913043,0.018049889895671637,0.020286227569194674,0.003414572024387526,0.0007903353279891612,0.16757583558688885,0.2505127222350496,0.10517337831694303,0.3928628012034747,0.13114166029050608,0.055915211829180696,0.3024768555047078,0.5660161825633714,0.029773092354116504,0.013660192605251613,0.4864151065421463,0.41366906307378004,0.45386252655026643,0.48611070582154037,0.4871111424761274,0.4640309112748007,0.3351357316265725,0.36397536303462186,0.9896874539887007,0.48205453397853987,0.28763431895039454,0.3363530057510653,0.37797443342690873,0.1880103316507053,0.7776947039616482,0.7758094770729169,0.9175556007835753,0.4894328058590631,0.4759511911181602,0.11182573248407643,0.45440258704302977,0.32109507586386793,0.3916261417926301,0.9845357670814822,0.44668173576695275,0.7265509885662742,0.7265509885662742,0.5278529593655644,0.016108256221525084,0.5162690320983463,0.61686263619456,0.0013035860534437783,0.006241518420494266,0.05877094792812614,0.40163230332455563,0.0,0.0,0.0004103468689644827,0.003335040207946176,0.08878568298142091,0.001655848329048843,0.0,0.0009254711209919278,1.1298493413537448e-06,0.18608664395575827,0.007858649095575532,0.0062526068785326155,0.0037564889152310993,0.0062526068785326155,0.5689526834117766,0.8326285076998198,0.0029046491620442877,0.4232624140324311,0.003763193358923639,0.02045772174270275,0.010826185829030296,0.9754160624389278,0.003726747990023895,0.6829961793348852,0.23328050291474453,0.03293724412346298,0.3726457240941475,0.6828649596388084,0.0,0.01598677917204429,0.0
63,EOG,MRQ,2012-03-31,0.0004347826086956522,0.018049889895671637,0.020271023985370198,0.004210130541336068,0.0006774302811335668,0.16760036096251424,0.250029403245104,0.10527769004378723,0.39227103179208817,0.13098328263257272,0.055919586430664185,0.3024635474199148,0.5654110237448211,0.029668037874755353,0.013660192605251613,0.4860687227008374,0.4131233589352367,0.453340402363336,0.48576072581510343,0.48676184380870796,0.4640309112748007,0.3351357316265725,0.36392571280740676,0.9896865386662287,0.479461319166842,0.28763431895039454,0.33647686760630535,0.37797443342690873,0.1870664559450237,0.7775996640431837,0.7758094770729169,0.9176164550843361,0.4894353532406167,0.47462523394131645,0.11119025477707006,0.452394715929864,0.3204864812523961,0.390848773132625,0.9845334581685588,0.44687163060558444,0.7265507244610221,0.7265507244610221,0.5278587798755866,0.016100363415683976,0.5160479299690528,0.6168624033372762,0.0013032297186568599,0.0063930198666622,0.05662851806013935,0.40193436265635285,0.0,0.0,0.00042868278727388156,0.0037059827770254327,0.08661053154690167,0.0015784262532133673,0.0,0.0008378150132048164,1.1298493413537448e-06,0.18543968936036087,0.00783939024134006,0.00614605638524708,0.003686225635010572,0.00614605638524708,0.5689527802557459,0.8326109888333634,0.0028573007986070756,0.4235028918754075,0.003768322858807731,0.0204190964692074,0.013323046384117115,0.9754163734886192,0.0037318453373029895,0.6830479872546571,0.23271459604422906,0.03437778728929801,0.3726574807778222,0.6828727790420557,0.0,0.016496388403848032,0.0
64,EOG,MRQ,2011-12-31,0.0004347826086956522,0.018049889895671637,0.020215834976087345,0.0037329470383164333,0.0006774302811335668,0.16747215825667308,0.25016165067903695,0.10700464790754433,0.39112292315796054,0.13093139508336316,0.05599092794821505,0.302629819578139,0.5645735955807011,0.029436670231609726,0.013660192605251613,0.48508746832693844,0.4119502400717198,0.45218729479180036,0.4847692840353837,0.4857723321620122,0.4640309112748007,0.3351357316265725,0.36397536303462186,0.9896834440045374,0.4789853250578582,0.28763431895039454,0.33603217020769394,0.37797443342690873,0.18619815697189854,0.777659400184965,0.7755080816978872,0.9176218994072303,0.4892346705731651,0.4751304900872324,0.11256611464968153,0.45273927428638766,0.31959852422150115,0.3894850947380698,0.9845280707050709,0.4468109512873202,0.726549932145266,0.726549932145266,0.5279435410527848,0.016098317132688132,0.5160854018961861,0.6168617478871437,0.0013028767651489413,0.0056775073425128705,0.05563935872753942,0.40164937870309414,0.0,0.0,0.0008595058811553905,0.003502747335048173,0.08330394903661038,0.0016189146850899743,0.0,0.0008812073827606272,1.1298493413537448e-06,0.18481474345161883,0.0077510453222959345,0.005973682058701724,0.003585429606090816,0.005973682058701724,0.568952770571349,0.8325952959514773,0.00278478743596268,0.42352775148800137,0.0037671640050685926,0.020401265208543164,0.011802842351270642,0.9754162405503694,0.0037310091232641853,0.6830564401732074,0.23226461254278302,0.03329631450553058,0.3726574807778222,0.6828718153222458,0.0,0.017645510449768444,0.0
65,EOG,MRQ,2011-09-30,0.0004347826086956522,0.018049889895671637,0.020223816857595195,0.002690647885572988,0.00101614542170035,0.16729912652582438,0.2510039671711341,0.10433188572248941,0.39401311501754327,0.13110529303599855,0.05596794111237561,0.30251396559886384,0.5672177016973314,0.029779385396684,0.013660192605251613,0.4871154130167234,0.41476551846009296,0.4549099713070805,0.4868182828942877,0.48781734204199234,0.4640309112748007,0.3351357316265725,0.3640929556780261,0.9896896769147042,0.4820345676414896,0.28763431895039454,0.33643379838493404,0.37797443342690873,0.18554015505338806,0.7775762697469,0.7758094770729169,0.9176337293611825,0.4894199799597998,0.47524276923076925,0.11309745222929936,0.45372205150518047,0.3207452602373735,0.3920314682838852,0.9845375949708798,0.4462898585760909,0.7265515472504611,0.7265515472504611,0.5278398632180146,0.01610708691695603,0.5161940882440798,0.616863101909128,0.001359729070057451,0.005378334840921527,0.055695200770077,0.401348008558262,0.0,0.0,0.001892159620262998,0.0030587193943249005,0.0811415032321683,0.0016471119858611823,0.0,0.0008659300816162098,1.1298493413537448e-06,0.18455286875101284,0.007775905795045101,0.005963071525560854,0.0034909112324233845,0.005963071525560854,0.5689528674153183,0.8325877273777516,0.0027787049006092854,0.42330111258333863,0.0037627621575323316,0.020384444387755007,0.008500688793043429,0.9754158740021851,0.0037263120912164336,0.6830055604523809,0.23213822391449218,0.031222147887926915,0.3726398457523102,0.6828640824806582,0.0,0.02025618472283982,0.001556973187506281
66,EOG,MRQ,2011-06-30,0.0004347826086956522,0.018049889895671637,0.020206864861630904,0.0039618738340462655,0.0006774302811335668,0.16697663190877135,0.25036737683927707,0.10558890244777833,0.3923981688971422,0.13061860584220852,0.05584805120382253,0.30248942717374155,0.5659848754844745,0.029637182300416596,0.013660192605251613,0.48593148483312826,0.4132271199151776,0.45343600402446144,0.4856220631406474,0.48662345108193084,0.4640309112748007,0.3351357316265725,0.3641530585846549,0.9896865386662287,0.48481290763728174,0.28763431895039454,0.336724776066033,0.37797443342690873,0.18477369439071567,0.7776509446426213,0.7758094770729169,0.9176340346503167,0.48942840249141956,0.4747335511498811,0.11210171974522293,0.4540350166335808,0.32094260312466655,0.39034176097432977,0.9845332657591485,0.44667835126314515,0.7265506127241848,0.7265506127241848,0.5278635090399797,0.016082489760128445,0.5162287186980654,0.6168623170938377,0.001359340222972456,0.0052212022736663425,0.0525398102310231,0.40258681698485843,0.0,0.0,0.0021475900790493717,0.0031250026433119133,0.07824830174208393,0.0016407053341902312,0.0,0.0008058578654451589,1.1298493413537448e-06,0.1838108827159065,0.007674800372603994,0.00576218375108645,0.0033840284880145956,0.00576218375108645,0.5689528625731198,0.8325675092297566,0.002687347604909274,0.42534835005363114,0.0037760575337643042,0.02036969828318643,0.012507204339968053,0.9754163883312393,0.003739593661002974,0.6834510959461229,0.23133294728873763,0.0336499026162648,0.3727515342472195,0.6828900221246408,0.0,0.019727937268852424,0.001556973187506281
67,EOG,MRQ,2011-03-31,0.0004184782608695652,0.018049889895671637,0.019398794381359944,0.004490982785766211,0.0005645252342779723,0.1668443491849805,0.24782363090615225,0.10385337855621754,0.39098845182083586,0.12958020078735297,0.05586928658482449,0.30246523065593606,0.5642485521450528,0.029827369846261165,0.013660192605251613,0.48515153840584957,0.4118546941132863,0.4521214211482964,0.4848340192913501,0.4858369413917631,0.4640309112748007,0.3351357316265725,0.36395445767579443,0.9896846208477158,0.481269293078056,0.28763431895039454,0.33641437825918535,0.37797443342690873,0.18422773662939726,0.790721486137063,0.7758094770729169,0.9177245019970997,0.49061337473719696,0.47424421252973836,0.11219299363057325,0.4525510776324417,0.32286000656077213,0.388870852996672,0.9845322556097444,0.44668681252266407,0.7265500134084205,0.7265500134084205,0.5279188038851905,0.016035842859998706,0.516058052717141,0.6168618168818945,0.001358943312837538,0.005134060884228394,0.05066595617895123,0.4025105332455563,0.0,0.0,0.0022692674472490765,0.003012241159848613,0.07685772198657047,0.0022617689588688944,0.0,0.0007189179510899568,1.1298493413537448e-06,0.18329658214480965,0.007644599113797578,0.005662651952675757,0.003316359359324077,0.005662651952675757,0.5689529255216998,0.832577565376665,0.002750975695321749,0.4297538856289566,0.003785202596604945,0.019294808790095912,0.013429666978720159,0.9754165380481032,0.0037482048864238525,0.6843753207580702,0.23092876344955648,0.03445426570503231,0.3729161278186649,0.6829088060047661,0.0,0.019509142869537865,0.001556973187506281
68,EOG,MRQ,2010-12-31,0.0004184782608695652,0.018049889895671637,0.01910589733898139,0.003463844347971762,0.0007903353279891612,0.16662519140460474,0.24783792531642912,0.10445901227478285,0.3905517012025819,0.1294136811837445,0.055901305116346646,0.3022295250118353,0.5641834098097741,0.029588175231422213,0.013660192605251613,0.48476398079104227,0.4114447576439353,0.451764730481155,0.48444243804433695,0.4854461224728179,0.4640309112748007,0.3351357316265725,0.36405375813022467,0.9896828337895561,0.48501783084367767,0.2862335999146228,0.33659342650257756,0.37797443342690873,0.18384345268984606,0.7776837476171603,0.7777559669143131,0.9177255196275472,0.49067488240715146,0.4731827914353688,0.11208140127388534,0.4526167145580846,0.3226260102996218,0.3883729085357981,0.9845303315156416,0.4463304726217817,0.7265496985136969,0.7265496985136969,0.5280777765651715,0.016029244641359047,0.5160632028872209,0.616861549527235,0.0013585833366732349,0.004648240588741108,0.049626157407407404,0.4020436039335089,0.0,0.0,0.0010913862704286775,0.0027583290229727065,0.07309904678426647,0.0023733933161953725,0.0,0.0006203906238343205,1.1298493413537448e-06,0.18052435486714477,0.007556558016262904,0.005200585708932915,0.0032189559573080934,0.005200585708932915,0.5689534872167219,0.8325050023376572,0.0025652198362450295,0.42853715271205334,0.003777979973300549,0.01927479726640006,0.010347713077161447,0.9754163528380173,0.003741613028947746,0.6841401710175018,0.23077785667609133,0.03237807729844267,0.3728691010839662,0.6828968143295279,0.0,0.013705877249113369,0.001556973187506281
69,EOG,MRQ,2010-09-30,0.0004184782608695652,0.018049889895671637,0.01908065938983276,0.0035229711362728443,0.0006774302811335668,0.16644448577603005,0.2473540102012972,0.10488393391237767,0.3897200448178271,0.12909422782638744,0.05596027345294882,0.3020064699384567,0.5635841426471243,0.029756533785860777,0.013660192605251613,0.4841627162817636,0.4106393450395235,0.4510261424377802,0.48383493119288423,0.4848397983121295,0.4640309112748007,0.3351357316265725,0.36408772933831923,0.9896795647807275,0.48076381232905535,0.28763431895039454,0.33645366310080754,0.37797443342690873,0.18316881319683603,0.777603316158013,0.7758475894349984,0.9177220851247869,0.4894495525182454,0.473695121332276,0.1127864331210191,0.45188285789392585,0.3198924151941159,0.38741587284397483,0.9845259060992052,0.44659796929771545,0.7265492007768758,0.7265492007768758,0.5276110444177672,0.01601220620335284,0.5159770707324359,0.6168611269343864,0.0009802174362828786,0.004302958223056048,0.04915053171983865,0.4013829719387755,0.0,0.0,7.210074174080055e-05,0.0022835307288181896,0.07141217580491165,0.0028791171272493574,0.0,0.0005688709508959878,1.1298493413537448e-06,0.18032222184627933,0.007178383316962877,0.00479669954916237,0.0029520414408902773,0.00479669954916237,0.5689527996245397,0.8324997096287581,0.0023690878874478116,0.4244462952447053,0.0037787345757353363,0.019233234982010686,0.010501643200683424,0.9754163915578958,0.003742271325105954,0.6832562192258119,0.23075471017540228,0.03229308519237028,0.37272802087987017,0.682888850656848,0.0,0.008321014500612779,0.0
70,EOG,MRQ,2010-06-30,0.0004184782608695652,0.018049889895671637,0.019066215985199506,0.003727640788084285,0.0006774302811335668,0.16632977488063044,0.24665787032178166,0.10298158184384945,0.3903994366524119,0.12874851600004936,0.055826509116443504,0.3019277523539004,0.5637856617810842,0.029812069886518938,0.013660192605251613,0.484793899466686,0.41126809589076524,0.4516425309390824,0.48447266733636973,0.4854762929146428,0.4640309112748007,0.3351357316265725,0.3640511449603713,0.9896834440045374,0.4832328529349884,0.28763431895039454,0.3366968288685599,0.37797443342690873,0.18260985045053546,0.7777285733159693,0.7770875330675859,0.9177273768031139,0.490252527914664,0.47336733703409994,0.1118763694267516,0.45227980674226564,0.3219521656476391,0.3878754389107101,0.9845323037120971,0.4467936661428744,0.7265497289873798,0.7265497289873798,0.5280446724144203,0.01599366437375785,0.5160234222631552,0.6168615754002666,0.0009712255750284541,0.003505580868147453,0.048458207279061236,0.4007532813528637,0.0,0.0,0.000905563993560329,0.0020905975950231866,0.06818199533566029,0.0017242328084832903,0.0,0.0004574133480550872,1.1298493413537448e-06,0.18034518503216984,0.0070595424950411646,0.004681458659107973,0.0028555675938850217,0.004681458659107973,0.5689525575146165,0.8325007946340824,0.002313927640370455,0.42429755820556503,0.0037845288444310274,0.019209258542964326,0.011097824906772111,0.9754164748056349,0.0037480536562253452,0.6832229572616655,0.23093314041886917,0.03251700988047205,0.37272802087987017,0.6828920822921384,0.0,0.010390892921054629,0.0
71,EOG,MRQ,2010-03-31,0.0003913043478260869,0.018049889895671637,0.019031627831998823,0.00352183408265167,0.0006774302811335668,0.16629705404203227,0.24678108352049705,0.10268218361926638,0.3907538769206046,0.12876814583307622,0.055791689871425465,0.301810215138604,0.5641081436272107,0.029833033584571914,0.013660192605251613,0.48507451917276,0.4116242338824382,0.45200315083863646,0.4847562004427843,0.4857592740404738,0.4640309112748007,0.3351357316265725,0.3640929556780261,0.9896852746494815,0.4844928781822007,0.28763431895039454,0.33687692958669807,0.37797443342690873,0.18208403704926798,0.777597814393296,0.7758094770729169,0.9177935482229628,0.4894274774932807,0.4731745820777161,0.11187859872611465,0.45245811389395,0.3202216691236627,0.38808033471757686,0.9845337948850267,0.4466827632056086,0.7265499626189489,0.7265499626189489,0.5279224417039543,0.015994917200081837,0.516044022943475,0.6168617651358314,0.00072749596205516,0.003166733670586396,0.04895188164649798,0.4016852575707702,0.0,0.0,0.0003429901610185609,0.0022203335464900057,0.06580528338211586,0.0020357286311053985,0.0,0.00046711776905745955,1.1298493413537448e-06,0.18040554998566471,0.006820322181216247,0.004451394624099154,0.002675792701405098,0.004451394624099154,0.5689520732947699,0.8325035733062545,0.0022042034732111726,0.42445508654594405,0.0037860110992136457,0.01916562905971824,0.010461374475496126,0.9754163786512697,0.003749512582846238,0.6832558317252814,0.23089992818276514,0.032003010333791396,0.37273977756354487,0.6828930344703936,0.0,0.008382899688730301,0.00026185458153514724
72,EOG,MRQ,2009-12-31,0.0003913043478260869,0.018049889895671637,0.0190067699724458,0.0036870858755957215,0.0006774302811335668,0.16621145436008866,0.24860162045297118,0.10267892350393606,0.3926921408101135,0.12937002813737952,0.055859245986585634,0.3018596338961654,0.5657416135786518,0.02962762474201721,0.013660192605251613,0.4864375443422863,0.4134816950701251,0.45377970214016883,0.4861333765714453,0.4871337690907498,0.4640309112748007,0.3351357316265725,0.3643516594935154,0.9896914203860795,0.48802833999579215,0.28763431895039454,0.33720648410262527,0.37797443342690873,0.18156558318000976,0.7776520393333711,0.7758094663464825,0.9177940061566642,0.48946819623651544,0.47383588580491676,0.10908063694267515,0.45410351495813656,0.32127476592666954,0.38973804475952073,0.9845396152696878,0.44670433941738186,0.7265511206189001,0.7265511206189001,0.5278435010367784,0.016027657728015333,0.5162370655254364,0.6168627396866863,0.00072749596205516,0.002733589623326298,0.048309554913824715,0.4010113561553654,0.0,0.0,0.0009532949738957598,0.002005289108539885,0.06315337929847079,0.0018277835796915165,0.0,0.0003905089449575506,1.1298493413537448e-06,0.18010838196352605,0.006766338074124237,0.004357503947775369,0.0025866254911840214,0.004357503947775369,0.5689520297149837,0.8324954489980942,0.002160552337145632,0.4243896355185396,0.003789667327677438,0.019148720688229166,0.01094252689632231,0.9754164735149723,0.0037533734008551854,0.6832424944977179,0.23077230539793864,0.03231866884647839,0.3727338992217075,0.6828952562196557,0.0,0.009975494289773651,0.00026185458153514724
73,EOG,MRQ,2009-09-30,0.0003913043478260869,0.018049889895671637,0.01896815286953163,0.0031644202277290997,0.0007903353279891612,0.1660984636459182,0.24567723179614198,0.10221354054506736,0.38992984045924883,0.12820687298688155,0.05581067338192208,0.30194116564094475,0.5632307323918563,0.029709394963878623,0.013660192605251613,0.4845251864185912,0.4108155714741352,0.45120571125731296,0.48420116450313555,0.48520531864152705,0.4640309112748007,0.3351357316265725,0.3640354659412507,0.9896817005331622,0.48659399326741004,0.28763431895039454,0.3370445650943115,0.37797443342690873,0.1813516063593905,0.7776164241360437,0.7758092813154899,0.9177888671229043,0.48943887353880666,0.4737968532910389,0.1113296178343949,0.45365435086733324,0.3209275726328853,0.38710485123894656,0.9845309087438725,0.4471108424996978,0.726549505513705,0.726549505513705,0.5304303539597658,0.015964849368306177,0.5161843206801351,0.6168613856647019,0.00072749596205516,0.002188135839279931,0.046283576274294094,0.40051665363726136,0.0,0.0,0.0008498423566409776,0.0016370823672909394,0.05968380707163988,0.0016294585475578405,0.0,0.00035843989197415735,1.1298493413537448e-06,0.17925306873284885,0.006665610375721908,0.004141687257307413,0.002500380323035664,0.004141687257307413,0.5689520151883883,0.832471049610069,0.0020577455631333474,0.4239630681220687,0.003784376127271606,0.019116555183362166,0.009375777496161213,0.97541631476347,0.003747911321920868,0.6831497016381091,0.23018384565117528,0.03133257299312332,0.3727045075125209,0.6828855786261165,0.0,0.009932914330336324,0.00026185458153514724
74,EOG,MRQ,2009-06-30,0.0003913043478260869,0.018049889895671637,0.0188672010729371,0.0025735313625919972,0.0009032403748447556,0.16602076026499452,0.2452308515774228,0.10178855908884263,0.38977233079484686,0.12798194363885426,0.05577826743181837,0.30179398769133664,0.5631504209916692,0.02950087893155622,0.013660192605251613,0.4844243056058303,0.4106702828277604,0.45108931240502975,0.48409923634342117,0.48510358891495425,0.4640309112748007,0.3351357316265725,0.3639962683934493,0.9896806980371214,0.48894951609509785,0.28763431895039454,0.33724938406984717,0.37797443342690873,0.18119847148181348,0.777651822282619,0.7767254595941921,0.9178002645839163,0.4900316321981498,0.4733366502775575,0.11075707006369427,0.4538925600606726,0.3223507918377671,0.3869238846565563,0.9845319188932765,0.44715411579838027,0.7265494140926563,0.7265494140926563,0.5270628251300521,0.01595307280086071,0.5162122026353954,0.6168613080456073,0.00072749596205516,0.002010265558868527,0.04618346626329299,0.39885927213627387,0.0,0.0,0.000981706941397387,0.0015621929352660666,0.05652647169309271,0.0014676654884318765,0.0,0.0003634890556691186,1.1298493413537448e-06,0.1787932387263134,0.006624475406759763,0.004038623985639381,0.002434589959930471,0.004038623985639381,0.5689520393993807,0.8324599878484696,0.002017254960143591,0.4228565419479673,0.0037660949849526435,0.018991034358513053,0.00757524927252768,0.9754160734095599,0.0037296124679015016,0.6829086312498993,0.23023660705620508,0.030211070736808784,0.3726104540431235,0.6828563611806251,0.0,0.011985922366951183,0.00026185458153514724
75,EOG,MRQ,2009-03-31,0.00036956521739130437,0.018049889895671637,0.01885078120240667,0.002074743840770043,0.00101614542170035,0.1659129123809749,0.24670842761486955,0.10221071112387242,0.3910284530707354,0.1284403638730856,0.05577169745837268,0.3016247435695124,0.5644079943867777,0.029802079681443036,0.013660192605251613,0.48527092835251817,0.41188527847457485,0.4522831158937244,0.4849546487472326,0.4859573360069306,0.4640309112748007,0.3351357316265725,0.3643699516824894,0.989687497575485,0.48695403955396593,0.28763431895039454,0.33689427336928995,0.37797443342690873,0.18141449261687975,0.7775630673989771,0.7760884984466782,0.9178647314727656,0.489608513576765,0.4731287517842982,0.1118292356687898,0.453121372262862,0.3206358079827997,0.3881552629715557,0.9845387975296941,0.44655578387525685,0.7265501353031522,0.7265501353031522,0.527888246207574,0.015978129327340426,0.5161209203105305,0.6168619117496768,0.0005475338897420573,0.002162088065485164,0.0463646635496883,0.3972937170836076,0.0,0.0,0.00014895623220317642,0.0015354448214629597,0.05480806555119035,0.0013259358933161952,0.0,0.0003620163829247549,1.1298493413537448e-06,0.17853683280770583,0.006463856229150008,0.0038440507277711267,0.002310419126031337,0.0038440507277711267,0.5689517440252743,0.8324527368372778,0.0019217233754755634,0.42277123688140156,0.003761261936025075,0.018946337789404,0.006092937249169718,0.9754158565782398,0.003724755309761213,0.6828900312244325,0.23032248202951622,0.02917959960701442,0.37259869735944884,0.6828512482719336,0.0,0.009813883496198605,0.0
