,ticker,dimension,calendardate,dps,sharefactor,shareswa,price,divyield,cor,gp,opex,opinc,revenue,sgna,intexp,taxexp,rnd,prefdivis,consolinc,ebit,ebt,netinc,netinccmn,netincdis,netincnci,grossmargin,netmargin,capex,ncfbus,ncfi,ncfinv,depamor,ncfcommon,ncfdebt,ncfdiv,ncff,ncfo,sbcomp,fcf,ncf,ebitda,ebitdamargin,ncfx,eps,epsusd,payoutratio,sps,fcfps,epsdil,debt,payables,taxliabilities,accoci,deferredrev,deposits,cashneq,receivables,ppnenet,taxassets,intangibles,inventory,investments,equity,liabilities,assets,invcap,tangibles,de,bvps,tbvps,pe1,ps1,sharesbas,marketcap,pb,ps,pe,retearn,ev,evebit,evebitda,investmentsc,assetsc,debtc
0,PPG,MRY,2020-12-31,0.01141304347826087,0.018049889895671637,0.00897690555525526,0.010931633513973252,0.0016935757028339166,0.18069381955023364,0.26839486996494616,0.1263668556935372,0.39606192359542536,0.1479942861374042,0.08265736862070915,0.30477092209773293,0.5664676794226399,0.03627952806192558,0.013660192605251613,0.4896884577330534,0.4170782797589801,0.45677637326465803,0.4893448938390567,0.4903390341954386,0.4640309112748007,0.33596336349591704,0.363504992461005,0.9896848823684221,0.49308857563644015,0.27983698298459875,0.3363914300187729,0.37797443342690873,0.18329637841832966,0.7781080724005814,0.7763980901583624,0.9060981504566616,0.48940787283799864,0.47796352101506745,0.1132484076433121,0.4594886949059848,0.32232757223765807,0.39367218836818935,0.9845177768016207,0.4470566904387767,0.7265585663554288,0.7265585663554288,0.5279821019316818,0.018326468749896904,0.5175945793216764,0.61686904408204,0.0017182107090425978,0.010586619317230058,0.013063806380638063,0.37078258722843976,0.0,0.0,0.0024805055302415412,0.006310766216471879,0.015550407738421326,0.008696176092544987,0.025211931775896947,0.002588740842422524,9.29443357777561e-05,0.1724349168641851,0.008123723460599447,0.0047031797208202525,0.001714587765675217,0.0029107478094235794,0.5689597917591244,0.8326037378221716,0.003055579524587844,0.4238864281658149,0.003766319569010616,0.008954480367169247,0.015181557946496903,0.9754187528251597,0.0037296480514776207,0.6831275870729464,0.24792150570332364,0.035500792699600596,0.37272802087987017,0.6829450464862369,0.0006788736637326595,0.03686431027190005,0.005364480346044368
1,PPG,MRY,2019-12-31,0.010760869565217391,0.018049889895671637,0.00898674204593594,0.010118261156959641,0.0016935757028339166,0.1824179371208811,0.2702252261707353,0.12740171799105113,0.39723593639796806,0.1500182029099974,0.08439268101729663,0.30461311872074065,0.5675925513431638,0.03732181323716725,0.013660192605251613,0.4906296001351384,0.41828079340039825,0.45795638510618036,0.49024216593682035,0.4912345594891612,0.4640309112748007,0.3365702935334363,0.3634814739323241,0.989685100302344,0.49194193141174,0.28334545066467454,0.3369134956345541,0.37797443342690873,0.18332782940982215,0.7751071098276806,0.7758644500490064,0.9068104917699137,0.48880974730693766,0.4778049167327518,0.11292993630573248,0.45900826995652005,0.3217426359285271,0.39484261692831235,0.9845180654157362,0.44675450259881544,0.726560150986941,0.726560150986941,0.5279482702171778,0.01855548540192151,0.517473639120834,0.6168703722309927,0.0015200157399681878,0.00976023764056864,0.013258617528419508,0.3733438940092166,0.0,0.0,0.0016634923696328262,0.0063768490143054635,0.014732583073768568,0.00550289203084833,0.022329794935287233,0.0025514391011772428,8.080357724071115e-05,0.17171370009135414,0.007776912898140821,0.004258739338120527,0.0016262653617998785,0.0026712117590074933,0.5689593753300562,0.8325577177182931,0.0028010075302384,0.4235988390434728,0.0037629238580540714,0.008964305864174175,0.014067372273748047,0.9754187437905214,0.003726285403534344,0.6830665512335631,0.24701085022548022,0.034955893533673926,0.3726986291706835,0.6829262972307754,0.0004030812378412666,0.033458781167640964,0.004833694032121773
2,PPG,MRY,2018-12-31,0.010108695652173913,0.018049889895671637,0.009116794186131788,0.007748641410431634,0.0020322908434007,0.18310286053935754,0.26972145840767403,0.1266719307060991,0.39724486425197975,0.15036992015401512,0.08414247318337006,0.304244910841092,0.5671581948590011,0.037498805059378096,0.013660192605251613,0.4910591471801926,0.41847474721353023,0.4582006682593376,0.4907200608584553,0.4917115240477743,0.4640309112748007,0.33607371441182965,0.36344488955437615,0.9896853182362659,0.4922470018935409,0.28511302468600547,0.33720551863881526,0.37797443342690873,0.1831076724693746,0.7614989713681748,0.7771274876947686,0.9071921031877274,0.48842725501454237,0.47586042823156227,0.11280254777070063,0.45724369026792,0.32006687244831417,0.3949717389402832,0.9845180654157362,0.4447600628550707,0.7265606588816564,0.7265606588816564,0.5279340827239988,0.01855703055438776,0.5170234432190197,0.6168708034481852,0.0013046542775093802,0.010114800049136207,0.012995049504950494,0.37385821263989466,0.0,0.0,0.0012429314967948974,0.006572894647878429,0.010976067867708057,0.005683643958868894,0.020438815482351987,0.0026603601856134643,8.004477983214585e-05,0.17054906856189378,0.0075300881106528566,0.003851576152021699,0.00141618056876692,0.00239848697871448,0.5689598982874906,0.8324771362253031,0.0024791698508043526,0.4233111237302038,0.003758530993880129,0.009094212652627554,0.010928821027308272,0.9754183069012244,0.0037219353113537557,0.6830024964946974,0.24575728362631746,0.03278684597117708,0.3726692374614968,0.6829051934981737,0.0004313676404967941,0.03232541240523627,0.004607225204848132
3,PPG,MRY,2017-12-31,0.009239130434782607,0.018049889895671637,0.00967138663996719,0.00885461556596086,0.0016935757028339166,0.1815440693111009,0.2704183371465754,0.1260737444069581,0.39843226883554,0.1494042403524577,0.08398911999483442,0.30390300352427546,0.5700761794449146,0.037695462639612376,0.013660192605251613,0.4922995246024277,0.42063840975113576,0.4603329703589306,0.49195380999288035,0.49294287132664283,0.4640309112748007,0.3362944162436548,0.3635180583102721,0.989686233558738,0.4924994740164107,0.28942190324366507,0.3380362942876725,0.37797443342690873,0.18252582912676324,0.7704169261838704,0.7748870037180503,0.9076754776502912,0.4877863451107302,0.47618080888183983,0.11267515923566879,0.45762138283825393,0.3203632928752386,0.39690856911984607,0.9845198933051338,0.45086425722228934,0.7265621216184369,0.7265621216184369,0.5279104369020335,0.01830082757113266,0.5170646445796592,0.6168720281050117,0.0010783686828968648,0.010555909187354127,0.013144022735606893,0.3763578011849901,0.0,0.0,0.001958152853786789,0.006700654723690024,0.01105041556449467,0.007209993573264781,0.020252762047805583,0.002581280494173468,8.282703699688532e-05,0.17219985361970686,0.007429377801080958,0.003977356628294402,0.0013717640997660274,0.0025374948473294375,0.5689575643478301,0.8325442477741447,0.002472490988455527,0.42331928407680824,0.0037623129894163864,0.009648185270607857,0.013248378990957866,0.9754183411037838,0.0037256804827403155,0.6830057677201066,0.24415433588467833,0.03379303667537238,0.3726574807778222,0.6829009404353005,0.00038893803651350286,0.035123586000455516,8.492581022761532e-05
4,PPG,MRY,2016-12-31,0.008478260869565218,0.018049889895671637,0.010033205974870365,0.007182388707086649,0.0018064807496895113,0.18047338442704583,0.2706954094162591,0.13358098246117772,0.3931246596255658,0.14866686823561354,0.08399719121528366,0.30442901478091633,0.5656101038000623,0.03773479415565923,0.013660192605251613,0.4888245372716523,0.41588869637177067,0.45568745005651634,0.48843786878370865,0.48943377493113216,0.4640309112748007,0.3363495917016111,0.36357032170734066,0.989684184979872,0.4922890805806859,0.2926035364820608,0.3386358353943801,0.3780696152965698,0.18221131921183817,0.7679821829643472,0.7761218844736203,0.9081842928740428,0.4884229765772673,0.47549246629659003,0.11331210191082802,0.45690527772490086,0.3221279824835289,0.39223518533173946,0.9845164299357487,0.4425843104073492,0.7265561690923719,0.7265561690923719,0.5279835570591873,0.018137960149014504,0.5168747986549888,0.6168670087368916,0.0011485952467421283,0.009659731760974684,0.012857535753575356,0.37328217577353523,0.0,0.0,0.0024724693352191607,0.006152167501671278,0.010205199643131057,0.004820051413881748,0.018791396889186573,0.002258993449814237,5.72808575751866e-05,0.17090166342861113,0.007426962685743502,0.0037928946296306096,0.0012687638397553362,0.002456928003062983,0.5689589879541791,0.8324503286547287,0.0023076662069184306,0.4237408038362042,0.0037599503651265156,0.01000960022100257,0.011148439343742884,0.9754182320427924,0.0037233408626104695,0.6830959291807637,0.24227802974915727,0.03279578604201136,0.3727162641961955,0.6829335914932879,0.0003040788285469204,0.03564959925382037,0.004451527886097504
5,PPG,MRY,2015-12-31,0.0076902173913043475,0.018049889895671637,0.010233663555201875,0.007490151220551258,0.0015806706559783224,0.18071153308691837,0.27006569971243255,0.12688129591079844,0.39745466882125546,0.14862213227036566,0.08423125660831175,0.30442901478091633,0.5678264356038668,0.03799044900996379,0.013660192605251613,0.4913921667993919,0.41904367839871737,0.4587182173126369,0.4910370319799479,0.4920278780917524,0.4640309112748007,0.3362944162436548,0.3635441900088064,0.9896858412776786,0.4917630969913739,0.28581338420389135,0.33764534104115146,0.3783419077338281,0.1823056721863157,0.7710114565049168,0.7762680321417605,0.9089729564708575,0.4887635401843664,0.477218080888184,0.11388535031847133,0.45839791876286046,0.32235721428035047,0.39530912226188447,0.9845189312580824,0.4428864982473105,0.7265600087764207,0.7265600087764207,0.5279104369020335,0.018089266965888924,0.517187893477434,0.6168702342414911,0.0011202445228194109,0.009545266731437123,0.013350293362669598,0.36972309084924293,0.0,0.0,0.0017907321241538556,0.0062733192976995155,0.011042589491148712,0.015363913881748072,0.019779171487142016,0.002475343549036869,0.000130378341266978,0.17117768466265754,0.007704942461084643,0.004106744575205903,0.001392695998950356,0.002700552520203038,0.568959767548132,0.8324560977074288,0.0024868028363458678,0.4233317349149263,0.003760983451793189,0.010209833761510141,0.011858416080813654,0.9754183346504707,0.0037243638904239,0.683008245921174,0.24153559482139506,0.03324738208186294,0.3726692374614968,0.6829068554820373,0.0010183104955989893,0.03639794800603017,0.001988679389496659
6,PPG,MRY,2014-12-31,0.007119565217391304,0.018049889895671637,0.010431344429001602,0.008760240115403363,0.0012419555154115389,0.1818176450443429,0.27001532293612646,0.1276230469217333,0.3968475747484577,0.14947057299058383,0.0851352332986271,0.3060596496765031,0.5658662627522608,0.038324766896362064,0.013660192605251613,0.4949250705856802,0.4215521477152241,0.4608712213743619,0.49443106121931474,0.4954152998549638,0.4640309112748007,0.3382807327300817,0.3634997661212981,0.9896877155094069,0.49035346097201765,0.284379314714887,0.337094669090259,0.37808768780346746,0.1823685741693007,0.7710586414510315,0.7763203235092603,0.9095326532169842,0.4886291972539278,0.47605392545598735,0.11496815286624204,0.45688412694096214,0.3202723906109818,0.397749944810753,0.9845205186357172,0.43871630605584433,0.7265649251972663,0.7265649251972663,0.5278736949325185,0.018131069604232584,0.5168453183710829,0.6168743394291634,0.0010440356961280695,0.009902620969993411,0.01571094609460946,0.37575090520078996,0.0,0.0,0.0009536284759891886,0.006506811850044845,0.012099109392853231,0.018657615681233933,0.02101388973458632,0.0027230271109055368,0.00023888637069181717,0.17152849874721976,0.007768459994459726,0.0042171331767530745,0.0014240938477268492,0.0027231593362061625,0.5689595690179949,0.8324658098282588,0.002460087386950564,0.42316894861926097,0.0037634718431555246,0.010407293698849948,0.014137081332117033,0.9754188405902179,0.003726828053070164,0.6829736952924725,0.2398808869105002,0.033917466028994314,0.37265160243598483,0.6828972875332668,0.0035145855299492895,0.03493921022092557,0.0034041095599569144
7,PPG,MRY,2013-12-31,0.006576086956521739,0.018049889895671637,0.01079528652628731,0.007187694957318797,0.0014677656091227277,0.18175072723908947,0.2679498751075754,0.1266719307060991,0.3953610870555045,0.148659155138157,0.08344027700428583,0.3062963547419915,0.566044460284225,0.03793145173589351,0.013660192605251613,0.5006877579092159,0.42652598550087495,0.4656119707025832,0.4999366057757015,0.5009101262495984,0.4640309112748007,0.34186713749724124,0.363450115894083,0.9896913767992951,0.4910898379970545,0.28734750505259365,0.3381197294317471,0.37865998385522714,0.1824000251607932,0.7688032010267445,0.7749889048444599,0.9099397053959855,0.4877649529243546,0.4768881839809675,0.11560509554140128,0.4578902999483317,0.32074666329406093,0.4025649462894083,0.984524799745096,0.4463918771908618,0.7265723810916892,0.7265723810916892,0.5278500491105533,0.017977890705686585,0.5170325004146775,0.6168805662054224,0.0008858958782839208,0.009115324913174088,0.010932343234323431,0.38455604015799866,0.0,0.0,0.0015295557859264794,0.006332793815749741,0.011253893471489616,0.0194810411311054,0.014704986908603787,0.0027215350412557256,0.00025962683319260226,0.1710868647727455,0.0073808339827981,0.0038150204495485613,0.0014106923269076143,0.002769575458425344,0.5689585666829126,0.8324258498760699,0.0024176885375754285,0.4228832102971797,0.003761163119039567,0.010770829039138664,0.012004080243692457,0.9754184127355593,0.0037245418083044967,0.6829128306742538,0.23706481020192935,0.03287159540488668,0.3726222107267982,0.682874244819491,0.004448036817581697,0.03912020216261944,0.00024062312897824343
8,PPG,MRY,2012-12-31,0.006358695652173912,0.018049889895671637,0.011656397597410884,0.005129248885118924,0.0019193857965451057,0.18034348515802445,0.26432274721353455,0.12384849137415356,0.39361122766920514,0.14622335896138514,0.079412738000113,0.30666456262164016,0.56487503898071,0.03728248172112039,0.013660192605251613,0.489640194020126,0.41626367374382583,0.45569573084136916,0.48876946934157783,0.48976472993098613,0.4640309112748007,0.34192231295519754,0.36340830517642814,0.989684751608069,0.4928150641699979,0.28682056789151766,0.3361959533955124,0.37667080326268987,0.18156657388624178,0.7778815846592304,0.7760736155190052,0.909608975500547,0.48915801210113197,0.4768754956383823,0.11496815286624204,0.4583737464383591,0.3208237326050613,0.39242678573659945,0.984517295778095,0.44814456666263747,0.7265557119871279,0.7265557119871279,0.5279500891265597,0.01760797285309104,0.517065354947946,0.6168665947683868,0.001042995302589621,0.008545791595475001,0.010726072607260726,0.3803797728768927,0.0,0.0,0.0017840352949685383,0.006502406330189272,0.011300849911565372,0.02315633033419023,0.013010209259372019,0.002517121499231584,0.00038280494584970405,0.16953936507993042,0.007596020759365395,0.0038186279201873575,0.001487782980001118,0.0028936724483999425,0.5689618690622662,0.8323169259269247,0.0023393908030753534,0.4234580520327255,0.003758899311735204,0.011630977696306884,0.009249715026922236,0.9754181855789381,0.0037223000430089788,0.6830364703784233,0.2323966899371761,0.031397001258297176,0.37268099414517153,0.6829134745636053,0.007686829921639593,0.0418370335021637,0.00454353084717742
9,PPG,MRY,2011-12-31,0.006141304347826086,0.018049889895671637,0.011737886830244184,0.0031636621919816496,0.0030484362651010503,0.18086701857559548,0.26516655821666213,0.12278970162467398,0.39529859207742235,0.14694376226382494,0.08050235276076095,0.30666456262164016,0.5661224217044594,0.03724315020507354,0.013660192605251613,0.49035449697145206,0.41741015628367256,0.45679707522679,0.4895204470755757,0.4905142456659496,0.4640309112748007,0.3415912602074597,0.3634109183462816,0.9896851438891284,0.49314117399537133,0.28794781321078156,0.3385369051521202,0.37883468475523796,0.18197543677564437,0.7702659343563031,0.775285222593625,0.9096852977841097,0.4880618764712476,0.4757620935765266,0.11261146496815286,0.4574068534583043,0.32135136096498684,0.3936430317848411,0.9845181135180887,0.4442161247431403,0.7265565550923556,0.7265565550923556,0.5279293535596057,0.017659129927987127,0.5168753314312039,0.6168672933402386,0.0009576830324368567,0.008364322646208136,0.011195911257792445,0.37900139894667545,0.0,0.0,0.0019862795363651217,0.006539853248961637,0.010647372787177763,0.010584029562982005,0.012803859086511464,0.0023977559272466836,0.0001053380267843228,0.16808980840564794,0.007446283608443146,0.003458842848478056,0.001340366250989534,0.0025485577572884133,0.5689643966898653,0.8322447598410844,0.0020461171867224453,0.42303388226386524,0.0037530062260540055,0.011712375853345761,0.005745163948317644,0.9754174492559132,0.0037164643365254083,0.6829438036817779,0.23145368435354782,0.02919187955680401,0.37263396741047283,0.6828783882375954,0.00017679001659704676,0.0363003372992202,0.000764332292048538
10,PPG,MRY,2010-12-31,0.005923913043478261,0.018049889895671637,0.012391406039326612,0.003185645228657693,0.0029355312182454555,0.18155391016481462,0.2648349111059801,0.12104897949417366,0.39624494460266585,0.14736026952647752,0.07934816823651905,0.3061122508021672,0.5678487102953623,0.036574514432276994,0.013660192605251613,0.48875214170226117,0.4165826200143095,0.4560890681218766,0.4879307149893205,0.4889276084607672,0.4640309112748007,0.3412602074597219,0.3633743339683336,0.9896840106327345,0.4930570166210814,0.28740753586841244,0.33698501147233234,0.3772226171399655,0.18268308408422576,0.77344619972444,0.776796309033937,0.9095580939781718,0.48936936690252264,0.4753624107850912,0.11044585987261146,0.4570019670229063,0.32168335184314223,0.39303074353452766,0.9845174400851527,0.4483258793666143,0.7265542289345588,0.7265542289345588,0.5279810105860526,0.017599913003740066,0.5167678882278123,0.6168653614872164,0.0010588613040509584,0.008381073626140463,0.011436560322698935,0.3830027978933509,0.0,0.0,0.0018309130992657597,0.006425309732716758,0.010510416503623473,0.010142191516709512,0.013487182609754612,0.002347025559153101,0.00030136069066369423,0.1687825326639967,0.007496034984394733,0.0036014581877318102,0.0014645536772477776,0.002642592491939708,0.5689629295037302,0.8322616435824728,0.0020097412400011615,0.4232865164994637,0.0037533745439090804,0.012365164661870116,0.006107198932569717,0.9754173195443199,0.0037168290681806318,0.6829983060819832,0.23025673043950853,0.029362779276678533,0.3726457240941475,0.6828838877883664,0.004504609622892752,0.038274242703599665,0.00019816022386443576
11,PPG,MRY,2009-12-31,0.005788043478260869,0.018049889895671637,0.01269289690746195,0.002218012597038051,0.0040645816868014,0.18022539491345954,0.2626980961776621,0.12200009570980785,0.39326304136274765,0.14553380804877145,0.07900110575720155,0.30621745305349535,0.5653539448478638,0.03645651988413643,0.013660192605251613,0.4865609691353556,0.41376813468152784,0.4533688302977356,0.48581919967230064,0.486820203829344,0.4640309112748007,0.3401015228426396,0.3633638812889199,0.989682703029203,0.4937723543025458,0.2874608965935847,0.3378741917220418,0.37797443342690873,0.1828403390416883,0.7771549364890626,0.7749433174984346,0.9097361793064848,0.4884974213858543,0.4754734337827122,0.11044585987261146,0.4573131857008615,0.3211932700706271,0.3903525030926805,0.9845155640934025,0.4477215036866916,0.7265515574083554,0.7265515574083554,0.5281909127287279,0.01741102855496047,0.5168097999567386,0.6168631191578157,0.0008702899752071956,0.007392765810133226,0.011837642097543087,0.38454575378538514,0.0,0.0,0.001450533201539735,0.006094895743548839,0.010776502997386092,0.010825032133676093,0.01420771681990704,0.0023097238179078197,0.00012911367891936916,0.16898732261183758,0.00729702948058839,0.003424692126430783,0.001293397111356406,0.0024146003475677713,0.568961409053412,0.8322637606660325,0.0017927378463638633,0.42373634509012137,0.0037513802374742845,0.012666318571129142,0.004355777576126818,0.9754165696693374,0.003714854179706009,0.6830998762791912,0.22959517077620845,0.028408909177803945,0.3726751158033342,0.6828937673591112,4.9501204647173095e-05,0.03243386874613624,0.0019249850318259474
12,PPG,MRY,2008-12-31,0.005679347826086956,0.018049889895671637,0.012481994693096781,0.001607414802467255,0.005532347295924128,0.18537412957648902,0.26687097248168595,0.12567295958653363,0.3949593336249766,0.15110266441238537,0.08300443110002664,0.3078217873862501,0.5663897180024056,0.037695462639612376,0.013660192605251613,0.48751659065131886,0.4153025248476385,0.4545902460635219,0.48680424838832376,0.48780333485832206,0.4640309112748007,0.3398808210108144,0.3632985520425842,0.9896830081366936,0.49225752156532715,0.27797602769421637,0.33826514496856286,0.37797443342690873,0.18414555518862732,0.7776550969178794,0.7748963893481143,0.9099905869183605,0.4885538967578858,0.4757652656621729,0.11044585987261146,0.45715606559160255,0.32210031657701593,0.39218103739123555,0.9845158046051653,0.4460896893509005,0.7265528068293555,0.7265528068293555,0.5280435810687912,0.017895914103220445,0.5167915079733513,0.6168641713277652,0.0010175056608976367,0.007604944889276022,0.012949211587825448,0.38077065503620805,0.0,0.0,0.00140231603140545,0.006482581490839198,0.0109486766109972,0.01142753856041131,0.013913414114351824,0.0025395025439787526,0.00012987247632793449,0.16823939410667954,0.007512216257155685,0.0035348402299353685,0.0013590007466048513,0.002545671780777376,0.5689643821632699,0.8322349418660764,0.0019219619062737356,0.4230751046333102,0.0037481552104017993,0.012455652069950258,0.0031043545251710535,0.9754162373237127,0.0037116605537492985,0.6829544103823469,0.22962266836612555,0.027847386015675105,0.37263396741047283,0.6828705342096844,0.0,0.0344240426016507,0.006390667219628054
13,PPG,MRY,2007-12-31,0.005543478260869565,0.018049889895671637,0.012446471899580485,0.0026610844914224468,0.0032742463588122392,0.1807941962581138,0.2614050922524716,0.11641303567583088,0.39605745966841954,0.14550449827843664,0.07394852175597473,0.3035873967702909,0.567492315231434,0.035669889563199324,0.013660192605251613,0.4888969328410435,0.41631108467592476,0.4562257010719476,0.4882476861108131,0.4892439625047453,0.4646676603811812,0.3393290664312514,0.3632985520425842,0.9896844900873627,0.49245739532926575,0.2860801878297526,0.33548556274024854,0.37797443342690873,0.1816294758692268,0.776843515844705,0.7780526426582249,0.9101941130078611,0.4904988743431529,0.4745789056304521,0.11044585987261146,0.45608341869185426,0.32128614847106346,0.3924892641294886,0.9845175843922105,0.44735887827873805,0.7265546352503311,0.7265546352503311,0.5279573647640875,0.01743888306023042,0.5166005964962506,0.6168657064609704,0.0007854979018236554,0.006197862574960635,0.009958287495416208,0.3915302007899934,0.0,0.0,0.003024288060089309,0.005861403191203509,0.010087808542941666,0.009479434447300771,0.007174896994053055,0.0022858507035108397,9.471486306440849e-05,0.16969607390958258,0.006813764901563522,0.0030372497798240423,0.0010268982973510492,0.002527153431498221,0.5689578016155549,0.832301788779473,0.0019134344302390743,0.42311195238395694,0.003752655874923568,0.012420168978202247,0.005124318834850126,0.9754166761490036,0.003716117396658245,0.6829619621368728,0.22931048984530178,0.02846822970378503,0.37263396741047283,0.6828766223797403,0.0,0.037639773109334834,0.012873337400336023
14,PPG,MRY,2006-12-31,0.005190217391304348,0.018049889895671637,0.012561900320638924,0.0024329157314400634,0.0033871514056678332,0.17907991954118005,0.2596796876639869,0.11558155672002488,0.39484327152282406,0.1435268600905826,0.07127694778727492,0.30332439114197046,0.5662894818906757,0.03500125379040278,0.013660192605251613,0.48793648495378755,0.41527235425448467,0.45526927042145054,0.48764787921937325,0.4886453233138329,0.4639151387100042,0.3351357316265725,0.36331161789185135,0.9896843593270095,0.4924047969703345,0.28495294251048875,0.33732709556303825,0.37797443342690873,0.18118916198833168,0.7766736500386917,0.7756767374477254,0.9106774874704251,0.48902965898287853,0.4747438540840603,0.11044585987261146,0.4562254310982998,0.3210707496274983,0.3913688182836769,0.9845171995733899,0.44802369152665295,0.726553842934575,0.726553842934575,0.5279730073847722,0.017262610396445617,0.5166224403210723,0.6168650510108378,0.000336828188367806,0.005558533507543525,0.009637422075540887,0.3878579657669519,0.0,0.0,0.000628162577582766,0.0047468066677437285,0.009027375604564167,0.008957262210796915,0.006491573470809907,0.0017949597887229375,8.788568638732071e-05,0.16814501265245724,0.0064150293593496,0.0024210937947176047,0.0009656342021774041,0.001959578050994243,0.568957937197112,0.8322289875685648,0.0014700653091362127,0.42315885334511116,0.0037529163924308164,0.012535468391601863,0.004728442518588457,0.9754169762280629,0.00371637537758511,0.6829721993601917,0.22848556214778823,0.02818901997056391,0.3726398457523102,0.6828804599466477,0.0,0.02632777675346789,0.0009908011193221788
15,PPG,MRY,2005-12-31,0.0050543478260869565,0.018049889895671637,0.012696102887183017,0.0021937554531196585,0.0036129614993790225,0.1764032073310424,0.2573707520832896,0.11333835809824612,0.39406208429679757,0.14058045686218854,0.06844394940959023,0.3032717900163064,0.5660667349757205,0.03460793862993423,0.013660192605251613,0.487381452255122,0.41468187264561623,0.45471031744388735,0.487087084158271,0.48808562000525635,0.4629310719092343,0.3351357316265725,0.3633534286095062,0.9896844029137939,0.49354092152324847,0.28702734070156016,0.33768109896004056,0.37803467511656763,0.18040288720101902,0.7731725270369741,0.7756995311207381,0.9106774874704251,0.48872503424889036,0.47460428231562257,0.11044585987261146,0.45641880969431076,0.3207525917025994,0.39058992098565914,0.9845175362898578,0.44451831258310165,0.7265530506188189,0.7265530506188189,0.5280039288442651,0.017009205391980753,0.5166522757891215,0.6168643783120176,0.00033032572875250384,0.004958290059968508,0.00911028602860286,0.38909233048057934,0.0,0.0,0.0006589679918352258,0.0044274064782147396,0.009015636494545228,0.008013335475578406,0.005595134195268154,0.0016696259381387922,7.979184736262409e-05,0.16774077510324087,0.006138257141677187,0.002087763507692811,0.0008760354629859479,0.0016899797452548534,0.5689568525446557,0.8322082136861355,0.0012543738348888623,0.4232231686541738,0.0037538237120250256,0.012669520967712415,0.004309235022881716,0.9754169329908651,0.003717273862882123,0.6829839235041513,0.22784503005324827,0.027868784742746386,0.3726398457523102,0.6828819718903014,0.0,0.021794301703849116,0.000714792236082429
16,PPG,MRY,2004-12-31,0.004864130434782609,0.018049889895671637,0.013066002128700752,0.0025826277915613947,0.0029355312182454555,0.1771944119696272,0.2577191914527403,0.11268633503218242,0.3949191582819238,0.14132862731547186,0.06914614558867446,0.3035084950817948,0.5668129371408205,0.03478493045214508,0.013660192605251613,0.4878013465575907,0.4153844164576276,0.455347937877552,0.48751133781319184,0.48850904772565773,0.4640309112748007,0.3351357316265725,0.3633246837411185,0.9896846644345002,0.49371975594361456,0.2871874228770769,0.3377466551446706,0.3779141917372498,0.181393593433033,0.7777966517562238,0.7753911461329193,0.9109064543211133,0.4889577812366566,0.474436161776368,0.11044585987261146,0.4563100342340546,0.3214383109568847,0.3915312621051887,0.9845183540298516,0.44893025504653694,0.7265535280398514,0.7265535280398514,0.527974826294154,0.017036182918823913,0.516621374768642,0.6168647750318347,0.00035113359952147077,0.004609311311378382,0.00974055738907224,0.39304229756418696,0.0,0.0,0.0009844338902416485,0.004264402243558566,0.009669113618932837,0.007230077120822622,0.005794718788690657,0.0016054669431969084,7.650372525884107e-05,0.16866500104175758,0.006076430189038323,0.0021481285163820053,0.0008960739274489944,0.0017361553694314482,0.5689552352503681,0.8322413195802999,0.001252167425005768,0.423249668748817,0.0037552700333583684,0.013039006794278177,0.005220828180825941,0.9754170052679718,0.0037187061018209263,0.6829922863062992,0.2273905110669712,0.02843781587731525,0.3726398457523102,0.6828827913406785,0.0,0.021984100300424064,0.001174807041482012
17,PPG,MRY,2003-12-31,0.004701086956521739,0.018049889895671637,0.012916452608536716,0.0024257143918392904,0.0030484362651010503,0.17625362635459352,0.2565479314036229,0.11223171344483526,0.3940129810997331,0.14016086436055336,0.06804038838712802,0.30395560464993954,0.5664899541141355,0.03452927559784052,0.013660192605251613,0.4868891623832622,0.4145180894256381,0.4544453323285981,0.48658968332146724,0.48758918750547536,0.4640309112748007,0.3351357316265725,0.3633246837411185,0.9896839670459501,0.49400378708184306,0.28761430867845494,0.3379182931553384,0.37797443342690873,0.1814879464075105,0.7781741313251421,0.7752932674193942,0.9112371842165518,0.4889509357370164,0.4747692307692308,0.11044585987261146,0.45670887758832723,0.32187701318873285,0.39071904299763005,0.9845179211086784,0.4477819412546839,0.7265524411451604,0.7265524411451604,0.5280275746662302,0.016956544925495882,0.5166950754784064,0.6168638608513867,0.00043332468905889015,0.0041989123030363945,0.009087367070040337,0.3909130184331797,0.0,0.0,0.0007031670644583203,0.0038987440955460684,0.01004085210286591,0.00618573264781491,0.005588368615830103,0.0014875934408618194,6.815695376462268e-05,0.16748790403721125,0.006103479480817826,0.002025955510748098,0.0009166229260384879,0.0016286527443953134,0.5689570413903958,0.8321930236115949,0.0011882411710955772,0.42345468694134225,0.0037553598669815575,0.012889624416948613,0.004847527244835587,0.9754173001843806,0.0037187950607612246,0.6830361549710147,0.22678071157292684,0.02838772128011948,0.3726574807778222,0.6828893411729189,0.0,0.01918050388815982,0.0023142283287025177
18,PPG,MRY,2002-12-31,0.004565217391304347,0.018049889895671637,0.012879100975922174,0.0019000166009828692,0.003725866546234617,0.17535810866664306,0.2555655842656535,0.11591654104754384,0.3902186431447473,0.13909799953104365,0.06675706433569821,0.3045079164694125,0.563148750389807,0.03419495771144224,0.013660192605251613,0.48417191534544757,0.41088899807770224,0.4508721736646199,0.4838442257614622,0.48484907478609596,0.4640309112748007,0.3351357316265725,0.3633325232506788,0.9896811339049653,0.493782873974332,0.28748757695617083,0.3378634643463751,0.37797443342690873,0.1815508483904955,0.7779004586376763,0.7752423168561893,0.9114152695448647,0.488897883114805,0.4739730372720064,0.11044585987261146,0.45588701855528063,0.3211399143937807,0.3872285834482242,0.9845135437945945,0.4469358153027922,0.7265490687242497,0.7265490687242497,0.5263203463203464,0.016874777127417074,0.5165538897813877,0.6168610148179164,0.0005334625671345434,0.0038471417244575474,0.008812339567290061,0.386191573403555,0.0,0.0,0.0001915293147000758,0.0035793439060170804,0.01029911252328257,0.005482808483290488,0.005280534751398783,0.0014055296101222004,6.739815635605737e-05,0.16613272881715108,0.0061532308567694115,0.00189103610885711,0.0009824818283501564,0.0015156186643796906,0.5689606681970467,0.8321342745428139,0.0011089893134028131,0.4173841882768629,0.0037536620115032854,0.012852314530089861,0.0037861154651292845,0.9754174389306123,0.003717113736789586,0.6817279441682028,0.2264539755044999,0.02789614345346208,0.3737684873850784,0.6829691683353687,0.0,0.015970196197520686,0.0024911571000100496
19,PPG,MRY,2001-12-31,0.004565217391304347,0.018049889895671637,0.012798433724848344,0.001959522407157677,0.0036129614993790225,0.17549784878937819,0.25569572427111104,0.11170530950159117,0.39349962949405853,0.13925534671915685,0.06656335504491634,0.30558623954552633,0.5659776362097384,0.034057297405278256,0.013660192605251613,0.48637274065493863,0.41412587171463794,0.45381185228735976,0.4860679000907025,0.4870684200792345,0.4640309112748007,0.3351357316265725,0.3633299100808253,0.9896835747648907,0.4932253313696613,0.2875676180439292,0.337824130635597,0.37797443342690873,0.18232139768206193,0.7776739708963253,0.7750760571236261,0.911517032589615,0.4887601174345463,0.4745693893735131,0.11044585987261146,0.45629492653124126,0.32111620075962677,0.3905607644023109,0.9845182097227938,0.44657318989483863,0.7265518215136075,0.7265518215136075,0.5280766852195424,0.016893694804909258,0.5166272353070088,0.6168633433907557,0.0006229364114411012,0.0035149139557997477,0.014404565456545653,0.3927851382488479,0.0,0.0,0.0001794750221665046,0.003425150711072051,0.010768676924040134,0.004197461439588689,0.005216261746737299,0.0013488309634293728,7.827425254549346e-05,0.16778885622142958,0.006073049027565885,0.0020326894559405183,0.0011006704786226471,0.001661841474272241,0.5689563537982136,0.832208398930947,0.0012236629946241718,0.4234751719351379,0.003753778795213431,0.012771737436129065,0.0038802131370326578,0.9754167129328883,0.003717229383411974,0.6830404805583326,0.22702657237689167,0.028081183831082258,0.3726574807778222,0.6828858383110952,0.0,0.014657874472631041,0.0049256969932016895
20,PPG,MRY,2000-12-31,0.004347826086956522,0.018049889895671637,0.0128272678536969,0.001754473737472512,0.003951676639945806,0.1758855784256996,0.25679981528515355,0.11113105065441581,0.3951021792891643,0.13996495168515752,0.06631314721098978,0.3057966440481827,0.5673363923909653,0.03437194953365309,0.013660192605251613,0.4874972851661479,0.41569043247390247,0.4552816915987297,0.4872041196492836,0.4882024276522636,0.4640309112748007,0.3351357316265725,0.36335865494921304,0.9896846644345002,0.4903850199873764,0.2868672585260434,0.33735808575940884,0.37797443342690873,0.18232139768206193,0.7753052866013628,0.776105794822082,0.911695117917928,0.4892204772853486,0.47396669310071377,0.11044585987261146,0.45490501787241244,0.3210292507677289,0.39207274151022775,0.9845198452027812,0.44651275232684634,0.7265531420398676,0.7265531420398676,0.5279726436028958,0.01694831803263504,0.5163842893528936,0.6168644473067684,0.0007727530809776631,0.0038583090444124315,0.0143014301430143,0.3943178077682686,0.0,0.0,0.00018349311967769499,0.0037489564204566117,0.011508240855233297,0.004197461439588689,0.005574837456954001,0.0016726100774384148,8.206823958832001e-05,0.16781912951806693,0.0062300315245005,0.0021945446386011863,0.0011711241880723391,0.0017982038644187475,0.5689573222379068,0.8322091928372818,0.001321102825677578,0.4230703935053737,0.003752341457242407,0.012800539338742324,0.003482064825985361,0.97541651675217,0.003715806040367201,0.682951292354822,0.22685349931094273,0.027893085624845902,0.3726280890686355,0.6828717172190317,0.0,0.01677277312018047,0.008216572139521783
21,PPG,MRY,1999-12-31,0.004130434782608695,0.018049889895671637,0.013210612004480215,0.002370377782275457,0.002709721124534267,0.1751435780556835,0.25572091265926405,0.1101201158088675,0.3947093537126481,0.13898693092766964,0.06523160367079106,0.3046394192835727,0.5674254911569474,0.034411281049699954,0.013660192605251613,0.4872463138589252,0.4153111450171111,0.4550995143319684,0.48695054275208954,0.48794934441708115,0.4640309112748007,0.3351357316265725,0.3633534286095062,0.9896846208477158,0.49273090679570797,0.2786763872121022,0.33615661968473437,0.37797443342690873,0.18181818181818182,0.7769095747692657,0.7772776577757934,0.912000407052179,0.49011980480057776,0.47406819984139575,0.11044585987261146,0.45567551071589363,0.32118141325355015,0.3915729143671147,0.9845198452027812,0.44663362746283086,0.7265528068293555,0.7265528068293555,0.5279802830222998,0.016841159621056787,0.5165098469476008,0.6168641540790775,0.0007256752733628754,0.00399231688387104,0.014037862119545287,0.3956858953258723,0.0,0.0,0.00024644331401967793,0.003817241978217982,0.01147693656184946,0.004398296915167094,0.005622196513020357,0.001515942764208233,6.714522388653561e-05,0.1678351565574632,0.006184144333088844,0.0021437995516154496,0.0011335999297784813,0.0017440918048368004,0.5689569978106096,0.8322028415866028,0.0012441766432669942,0.42333400635161,0.003756419903735188,0.013183455047977516,0.004844848839847394,0.9754171478861914,0.003719844776256745,0.6830102014471073,0.2262938424808649,0.02868596430994899,0.3726457240941475,0.6828859768097505,0.0,0.016604665791785517,0.006751601913095419
22,PPG,MRY,1998-12-31,0.0038586956521739126,0.018049889895671637,0.013468547341603514,0.0022070210787000295,0.002709721124534267,0.17467121707742392,0.25570412040049534,0.10831359318546167,0.39603960396039606,0.13861053177179103,0.06444869528721439,0.30403450633843565,0.5684167149284982,0.03415562619539539,0.013660192605251613,0.48837085837013444,0.4165998603532546,0.4564327206932673,0.4880867623106707,0.48908335199011027,0.4640309112748007,0.3351357316265725,0.36338217347789387,0.9896860156248161,0.4911634756995582,0.286887268797983,0.3374236419440389,0.37797443342690873,0.18131496595430172,0.7757582620840647,0.775907355786442,0.9123056961864299,0.48914945522658176,0.47419508326724824,0.11044585987261146,0.45534616279456247,0.32112015303198577,0.3926850297605412,0.9845217692968841,0.44663362746283086,0.7265540765661441,0.7265540765661441,0.5279253519589654,0.016794011590397454,0.5164496432352872,0.6168652321220587,0.0004468498050587186,0.003559583235619284,0.01312110377704437,0.3959430546412113,0.0,0.0,0.00020626233890777394,0.0033150127146827444,0.011367371535006027,0.004016709511568123,0.002449139756574452,0.001368227868876919,6.765108882557914e-05,0.16743269979040196,0.005872594454557069,0.0017765590405859687,0.0009856726666404505,0.0016024384577533923,0.5689555306244745,0.8321814325791056,0.001121214016809146,0.4230713609691463,0.0037561683695902584,0.013441102105718108,0.0045990913509442325,0.9754172014486902,0.0037195956912239097,0.6829538156140907,0.22579726835706754,0.02818541031572886,0.3726222107267982,0.6828720865487792,0.0,0.014424693339696105,0.0045081450929159135
23,PPG,MRY,1997-12-31,0.003614130434782609,0.018049889895671637,0.013539786622294027,0.002164571076842842,0.002596816077678672,0.17404140243974447,0.2554858210365022,0.1087442873208432,0.3954860770116687,0.1380366773210253,0.06392406595801352,0.30390300352427546,0.5680714572103176,0.03374264527690341,0.013660192605251613,0.48795096406766575,0.41606971993069386,0.4559441543869528,0.48766250865574984,0.48865992426970883,0.4640309112748007,0.3351357316265725,0.36341614468598843,0.9896857541041097,0.49138438880706925,0.2863536615462604,0.3374212580827796,0.37797443342690873,0.1811577109968392,0.7744937055281884,0.7760736155190052,0.9126364260818683,0.48915031091403677,0.47440126883425854,0.11044585987261146,0.4556060152829522,0.32123872120275554,0.3921310546769243,0.9845214325804161,0.4463918771908618,0.7265535178819571,0.7265535178819571,0.5279329913783696,0.016745610733414136,0.5164913773721417,0.6168647664074908,0.00044242813252031316,0.003378114286352418,0.012823157315731573,0.3958607636603028,0.0,0.0,0.0002076017047448374,0.003286376835621525,0.011171719701357042,0.003454370179948586,0.0010892582895262065,0.0012876561077871114,5.6522060166621284e-05,0.1667720296108457,0.005838058305231454,0.0016517405564836108,0.001000350522775803,0.0015743001867707799,0.5689563537982136,0.8321527460968721,0.0010957508541042473,0.4231345826235094,0.003756590587619247,0.013512261766391873,0.0045345055615223845,0.9754175060450685,0.0037200137982433116,0.6829661435379467,0.22490440543740578,0.02819825894766468,0.3726280890686355,0.682875364350288,0.0,0.014012559244276216,0.0031422549784217674
24,PPG,MRY,1996-12-31,0.0034239130434782607,0.018049889895671637,0.014275186632511155,0.002126290271596628,0.0024839110308230777,0.17392921670740782,0.2550492223085158,0.1077871892422176,0.3957360569239972,0.13778831558292504,0.06340750784926188,0.30366629845878707,0.568472401657237,0.0335263219386457,0.013660192605251613,0.48809575520644805,0.41631539476066104,0.4562174202870948,0.4878088030195157,0.48880593382846793,0.4640309112748007,0.3351357316265725,0.3634030788367213,0.9896860156248161,0.49127919208920684,0.2875476077719896,0.3375571381745583,0.37797443342690873,0.18100045603937664,0.7718607855349829,0.7761607677981713,0.9126873076042434,0.4889663381112068,0.47440444091990486,0.11044585987261146,0.45557882141788814,0.3210509882657034,0.3923268203079769,0.9845220098086469,0.44669406503082315,0.7265535077240628,0.7265535077240628,0.527926807086471,0.01668313646072471,0.5164730853887544,0.616864757783147,0.00038546658629026617,0.0030877639675254338,0.013052346901356801,0.397311142198815,0.0,0.0,0.00012857912035809285,0.0030066263247926868,0.011398675828389864,0.003414203084832905,0.0,0.0011891795108995688,6.537469659988322e-05,0.1667257292748121,0.005742661249401957,0.0015490478922992046,0.000952870849016228,0.0015490478922992046,0.5689556662060316,0.8321413138456498,0.0010226411644644212,0.42312541274949,0.003757318239967078,0.013826809642031056,0.004557933836171152,0.9754175473462724,0.0037203518422164452,0.682961601671263,0.22412962040385873,,,,0.0,0.012450787935316638,0.004585993752291228
25,PPG,MRY,1995-12-31,0.0032065217391304343,0.018049889895671637,0.01535464108404903,0.001733248736543918,0.0029355312182454555,0.17367729085233602,0.2549148842383661,0.10752996913358696,0.39578516012106174,0.13754149646431613,0.0631895848971323,0.30337699226763454,0.5685726377689668,0.03346732466457542,0.013660192605251613,0.4882115881174739,0.4164102166248589,0.4563540532371658,0.48792583851052834,0.48892274147547526,0.4640309112748007,0.3351357316265725,0.363413531516135,0.9896862771455224,0.49157374289922157,0.2879945038453073,0.3377883727167079,0.37797443342690873,0.18082747558616785,0.7721250212332258,0.7758926069391985,0.9126364260818683,0.48881402574421273,0.4746074544012689,0.11044585987261146,0.45585680314965393,0.3212090791600631,0.39237263779609555,0.9845223465251149,0.44669406503082315,0.7265533451977538,0.7265533451977538,0.5279242606133363,0.01661018020779127,0.5164959947660065,0.6168646284179892,0.0003175288882295892,0.003080784392553631,0.012611156949028236,0.3974489795918367,0.0,0.0,0.00017626054415755227,0.0030486990394134016,0.011092676360562853,0.0034844955012853468,0.0,0.0011004013667357993,5.773613602032578e-05,0.166879232696585,0.0056641458497812755,0.001489717025193132,0.0009013196655982378,0.001489717025193132,0.5689547994525062,0.8321346450324368,0.0009142885493946297,0.42303569100048377,0.003755961752256924,,,,,,0.2233030752010559,,,,0.0,0.012339620185894167,0.00343454130862181
26,PPG,MRY,1994-12-31,0.0030434782608695656,0.018049889895671637,0.016107218483360646,0.0014065353293930638,0.0033871514056678332,0.17299531968997375,0.25331836023593124,0.10767891752207306,0.39397637689828496,0.13642032061803505,0.06272145411107614,0.3034059228867498,0.5668485766472133,0.033115307595956066,0.013660192605251613,0.4869885856318927,0.414655581128725,0.4546639450487117,0.48669013878458645,0.48768944740248993,0.4640309112748007,0.3351357316265725,0.363376947138187,0.9896850567155596,0.49290132547864507,0.2875983004609033,0.3378236538633452,0.37797443342690873,0.1805632872576308,0.7751391955910387,0.7758112201185002,0.9126669549952934,0.4890325683202256,0.47339920697858845,0.11044585987261146,0.4550872167683415,0.32102371758642634,0.39060699841304886,0.9845204224310121,0.4468209839236069,0.7265519535662335,0.7265519535662335,0.5279788278947943,0.016504483426924333,0.5163762977096661,,,,,,,,,,,,,,,,,,,,,,,0.4231720192651482,0.0037553688503438763,,,,,,,,,,,,
27,PPG,MRQ,2021-09-30,0.0032065217391304343,0.018049889895671637,0.009020698072130162,0.010839911188531828,0.0016935757028339166,0.17076636632381134,0.24984782015490858,0.10592682985188907,0.3915935326625539,0.13339802051066874,0.06297166194500271,0.3019304613118721,0.5642958970018265,0.03106810218571724,0.013660192605251613,0.4861700330606434,0.4126906134974614,0.45300861615663934,0.4858582115026382,0.48685913971167977,0.4640309112748007,0.3351909070845288,0.36334036276023907,0.9896849695419909,0.49596044603408374,0.2875609479532827,0.33807562799845053,0.37797443342690873,0.17758802346243965,0.7776173489609876,0.7753965093500987,0.9151550614394383,0.4890750104179947,0.47287232355273595,0.11070063694267515,0.4554640028765066,0.3211636280279347,0.38792001099619716,0.984517632494563,0.44536443853499336,0.7265524309872661,0.7265524309872661,0.5279591836734694,0.016649853041384152,0.5165911841164493,0.6168638349783551,0.0020024982434236087,0.012222631690620569,0.015435918591859185,0.367984693877551,0.0,0.0,0.0016634923696328262,0.007755776729099579,0.016653884080201603,0.007330494858611826,0.030607481377742597,0.003355664642425508,9.21855383691908e-05,0.17343927799968303,0.008542021437046758,0.005262818665918878,0.0019447110231712221,0.003086792376596847,0.5689600774488338,0.8326635189691878,0.0032246382277924994,0.4235335562706375,0.0037628340244308827,0.008998223939685178,0.015127613511062838,0.975418391439626,0.003726196444594046,0.6830523669118165,0.24914595720728006,0.03616439977472313,0.3726986291706835,0.682927543718673,0.0006223008584216046,0.03958656442848931,0.006355281465366547
28,PPG,MRQ,2021-06-30,0.0029347826086956524,0.018049889895671637,0.009010610456253662,0.012868414848707436,0.0014677656091227277,0.1705616765665655,0.2502298440418967,0.10567559160624984,0.39218723495433405,0.13337796645728178,0.06301201804724893,0.30195676187470416,0.5650086871296832,0.03093044187955325,0.013660192605251613,0.4865947537344048,0.4133457463773738,0.45363381541302483,0.486282465157559,0.4872825674320812,0.4640309112748007,0.3352460825424851,0.36339785249701445,0.9896858412776786,0.4956343362087103,0.2758282585060331,0.3359492237551775,0.37797443342690873,0.17744649400072338,0.7778249627238927,0.7767560849050912,0.9154603505736891,0.4899589355590334,0.47312291831879466,0.11159235668789809,0.4556090368235149,0.31991075769013394,0.3885156383417402,0.9845192198721978,0.4476610661186994,0.7265531623556563,0.7265531623556563,0.5279195314489432,0.016648391410672838,0.5166275904911523,0.6168644731798,0.002103416416653098,0.012055121891297307,0.015905757242390905,0.37011397300855825,0.0,0.0,0.0016353656870544933,0.00801129688072277,0.01705301382084553,0.007872750642673522,0.03131448442901892,0.0033213470404798496,9.699125529010441e-05,0.17341968939597652,0.008655290346373426,0.005375852745934501,0.0020270346510608077,0.0031495623657119055,0.5689604648247111,0.8326630690889314,0.003293871791962025,0.42364334237701645,0.0037672628220541005,0.008988147598152512,0.017938387156570073,0.9754190496775623,0.0037305821203507533,0.683075869269577,0.24881598612827463,0.03744131818795842,0.3727045075125209,0.6829336780549475,0.0007778760730270057,0.040378295717059094,0.006822373421618432
29,PPG,MRQ,2021-03-31,0.0029347826086956524,0.018049889895671637,0.008999119435563285,0.011389487105432918,0.0015806706559783224,0.16978031278169445,0.24988980080183035,0.10537649845667935,0.3920488532171522,0.1326405943404376,0.062495459938497304,0.3019304613118721,0.5644963692252861,0.03083211308943611,0.013660192605251613,0.4863630879123531,0.4129147379037472,0.4532239165628118,0.4860240117815728,0.4870246172116068,0.4640309112748007,0.3355219598322666,0.3634710212529104,0.9896857541041097,0.49544498211655796,0.2852597666802292,0.33761077505289194,0.37797443342690873,0.17732069003475337,0.7777872147670009,0.7765978699982972,0.9154603505736891,0.4898596758142508,0.47113402061855675,0.11152866242038216,0.4536601431605919,0.3210865587169343,0.3880657939129385,0.9845189312580824,0.4442765623111326,0.7265527154083067,0.7265527154083067,0.5279348102877515,0.01656507846012778,0.5161443624639976,0.6168640937086706,0.0018396766546564423,0.01065083140697064,0.012914833149981663,0.3694350724160632,0.0,0.0,0.002456396945174399,0.006989216274230007,0.015272582134639768,0.007792416452442158,0.025215314565615973,0.0028558213097387383,0.00013998977510880524,0.17270203418745583,0.008227331908576292,0.004843390079648142,0.001813886653269167,0.0030507176702088824,0.568959849865506,0.8326189278967122,0.0031945833472227826,0.4237858539970976,0.003766499236256994,0.008976669420310222,0.015856547923645135,0.9754188205849472,0.0037298259693582174,0.6831062384972046,0.24832588202563421,0.0360343856397633,0.3727162641961955,0.6829412493147707,0.0008485920796658245,0.039798054293244255,0.007508857054291655
30,PPG,MRQ,2020-12-31,0.0029347826086956524,0.018049889895671637,0.00897690555525526,0.010931633513973252,0.0016935757028339166,0.1695992410733616,0.2497554627316807,0.10610628574163138,0.3913614084582489,0.1324493095235157,0.062422818954454104,0.30195676187470416,0.5639729139751414,0.030792781573389254,0.013660192605251613,0.48584666618402955,0.4122596050238348,0.4525904365215735,0.4855071050296002,0.4865087167706579,0.464117740698398,0.3354667843743103,0.36348408710217756,0.9896846644345002,0.494876919840101,0.2801371370636927,0.3366190887690337,0.37797443342690873,0.17725778805176834,0.7778910216484534,0.7760092569128517,0.9154603505736891,0.4894977200207761,0.47427121332275973,0.11140127388535032,0.45648528358668955,0.32076247238349687,0.38741601862689157,0.9845171995733899,0.4516499456061888,0.7265518011978189,0.7265518011978189,0.5279835570591873,0.016544866195434143,0.5168470942918002,0.6168633347664119,0.0017182107090425978,0.010586619317230058,0.013063806380638063,0.37078258722843976,0.0,0.0,0.0024805055302415412,0.006310766216471879,0.015550407738421326,0.008696176092544987,0.025211931775896947,0.002588740842422524,9.29443357777561e-05,0.1724349168641851,0.008123723460599447,0.0047031797208202525,0.001714587765675217,0.0029107478094235794,0.5689597917591244,0.8326037378221716,0.003055579524587844,0.4238864281658149,0.003766319569010616,0.008954480367169247,0.015181557946496903,0.9754187528251597,0.0037296480514776207,0.6831275870729464,0.24792150570332364,0.035500792699600596,0.37272802087987017,0.6829450464862369,0.0006788736637326595,0.03686431027190005,0.005364480346044368
31,PPG,MRQ,2020-09-30,0.0029347826086956524,0.018049889895671637,0.008968275468951053,0.009253342369119443,0.0019193857965451057,0.1693748696086883,0.2499317814487521,0.10502955040317756,0.39235240025355106,0.13233824092014165,0.06205154281378888,0.3020356635632003,0.5646077426827638,0.030635455509201832,0.013660192605251613,0.48666714930379595,0.41325092451317597,0.45353030560236496,0.48633610642427316,0.4873361042702929,0.4640309112748007,0.3354667843743103,0.3635363504992461,0.9896867566001506,0.49546602146013047,0.28763431895039454,0.3380207991894872,0.37797443342690873,0.17736786652199213,0.7777589037993319,0.7745786187302315,0.9154857913348767,0.48857528894426133,0.473877874702617,0.11133757961783439,0.4562798188284279,0.3206399519403681,0.38840317723453976,0.9845204224310121,0.448265441798622,0.726553284250388,0.726553284250388,0.5279162574120557,0.016532755540968946,0.5167966581434312,0.6168645766719262,0.0016508452274280674,0.009721152020726546,0.013075265859919326,0.36883846280447663,0.0,0.0,0.0027242701125870924,0.0065684891280228565,0.014579974643522361,0.006245983290488432,0.02147733192609281,0.002494740454484415,9.066794355206018e-05,0.17176000042738773,0.007914815983909536,0.004401114179331695,0.0016667251913208068,0.002874192106950442,0.568959840181109,0.8325618460312345,0.003020098068359707,0.42365293288745876,0.0037630226750395793,0.008945859926212515,0.012838453065797317,0.9754183895036321,0.003726383258368672,0.6830783024124433,0.24768858494167276,0.03421632138797952,0.3727045075125209,0.6829286517079155,0.0006152292577577227,0.037970564949079744,0.006008501073603785
32,PPG,MRQ,2020-06-30,0.0027717391304347824,0.018049889895671637,0.00896622545571712,0.008038969101704898,0.0021451958902562944,0.1687391504587806,0.24847505300056674,0.10550809944249037,0.39044630342204645,0.13130468586096677,0.06148655738234179,0.3022197675030246,0.5635496948367265,0.030517460961061265,0.013660192605251613,0.48498757209392124,0.4114062082460542,0.4517292348968835,0.4846781036349273,0.4856813292710229,0.46394408185120334,0.3350253807106599,0.3634971529514447,0.9896830081366936,0.49570797391121396,0.287627648859748,0.33805417324711706,0.37797443342690873,0.17722633706027582,0.7776079119717646,0.7758765172876602,0.9156384359020021,0.48938562496416804,0.4727327517842982,0.11095541401273885,0.455258538118245,0.3218453950098609,0.3865829733883699,0.9845155640934025,0.44802369152665295,0.7265503587768269,0.7265503587768269,0.5282425697551748,0.01641432169247482,0.5165423462967258,0.6168621101095852,0.0018573633448100643,0.008529040615542676,0.012628346167950128,0.3674292297564187,0.0,0.0,0.0030510753768305783,0.006194019940299215,0.014443018359968071,0.004860218508997429,0.0210511004214956,0.0025454708225779977,7.599786031979754e-05,0.17090878655723168,0.008000794089922957,0.004369849433795458,0.0016571526764499248,0.002873230114780096,0.5689613557892288,0.8325083632078082,0.0030197402721624483,0.42357898500431157,0.003760381566517823,0.008943812204159605,0.011151046370575159,0.9754182301067985,0.0037237678655239015,0.6830622887277269,0.24717907077556142,0.033244614217601096,0.3726986291706835,0.6829225289131957,0.00031822202987468416,0.03837727622745463,0.013156423434428076
33,PPG,MRQ,2020-03-31,0.0027717391304347824,0.018049889895671637,0.00895985895499062,0.006336420812932696,0.002709721124534267,0.169142625461044,0.2491341491572385,0.1054123896346278,0.3912185627940612,0.13186311411681947,0.06260845702478672,0.3019830624375362,0.5640174633581324,0.030812447331412682,0.013660192605251613,0.48570187504524726,0.4121561629901644,0.4524869267109137,0.48536568714462663,0.48636757419719073,0.4640309112748007,0.335411608916354,0.3634971529514447,0.9896846644345002,0.4958973280033663,0.2873408349619471,0.3380458297327096,0.37797443342690873,0.17732069003475337,0.7776456599286564,0.7773621284463698,0.9156638766631897,0.49032431410232824,0.47070261697065824,0.11089171974522292,0.45337913988826345,0.32244614040842784,0.3873327141030394,0.984517632494563,0.4391998065997824,0.7265515777241441,0.7265515777241441,0.5279911964785915,0.016478800487282622,0.5160740360035959,0.6168631277821595,0.00182068947257976,0.009400091572023631,0.01265126512651265,0.366225724160632,0.0,0.0,0.0025608674804653495,0.006482581490839198,0.014270844746356964,0.0047598007712082255,0.02084136745891602,0.0027737574789991194,7.574492785027576e-05,0.17071468130232162,0.007999586532254228,0.004344356641281297,0.0016852320534045122,0.0028626482009062927,0.5689616608477321,0.832496507539874,0.0030107953672309845,0.4232368393379183,0.0037560875193293885,0.008937452818902122,0.008783179706833472,0.9754175815488317,0.003719515628177641,0.6829889880459693,0.24720980337605702,0.03166229055503235,0.37266335911965953,0.682898199316081,0.0003535800331940935,0.03831762523995965,0.011479138682432673
34,PPG,MRQ,2019-12-31,0.0027717391304347824,0.018049889895671637,0.00898674204593594,0.010118261156959641,0.0016935757028339166,0.1695421641218219,0.24952037110891878,0.10554399062043883,0.3915310376844718,0.1323181868667547,0.06251967359984503,0.30200936300036824,0.5642847596560787,0.030969773395600104,0.013660192605251613,0.48595284635246994,0.41247510926064807,0.4527891753580404,0.4856046346054441,0.4866060564764973,0.464117740698398,0.3355771352902229,0.3634710212529104,0.9896850131287752,0.4942983378918578,0.2871073817893185,0.33780505974552283,0.37797443342690873,0.17739931751348462,0.7764565992865637,0.7750934875794594,0.9156384359020021,0.4887746641212817,0.4737731958762887,0.11114649681528663,0.4558447169874032,0.320695283753394,0.38766176697225546,0.9845181135180887,0.44880937991055236,0.7265520043557051,0.7265520043557051,0.527960638800975,0.016529122344629388,0.5166872614272506,0.6168634900046012,0.0015200157399681878,0.00976023764056864,0.013258617528419508,0.3733438940092166,0.0,0.0,0.0016634923696328262,0.0063768490143054635,0.014732583073768568,0.00550289203084833,0.022329794935287233,0.0025514391011772428,8.080357724071115e-05,0.17171370009135414,0.007776912898140821,0.004258739338120527,0.0016262653617998785,0.0026712117590074933,0.5689593753300562,0.8325577177182931,0.0028010075302384,0.4235988390434728,0.0037629238580540714,0.008964305864174175,0.014067372273748047,0.9754187437905214,0.003726285403534344,0.6830665512335631,0.24701085022548022,0.034955893533673926,0.3726986291706835,0.6829262972307754,0.0004030812378412666,0.033458781167640964,0.004833694032121773
35,PPG,MRQ,2019-09-30,0.0027717391304347824,0.018049889895671637,0.008980268283925558,0.008982723607279872,0.0018064807496895113,0.1696799360738143,0.24987300854306163,0.1054722082645419,0.3919595746770349,0.1325557502684158,0.06246317505670033,0.30200936300036824,0.5644406824965473,0.03093044187955325,0.013660192605251613,0.4863051714568402,0.41285870680217573,0.4531576702839895,0.48597037051485864,0.4869710803733951,0.46400196813360156,0.3354667843743103,0.36348408710217756,0.9896857105173253,0.49532926572690933,0.28628029054914855,0.3377693018266337,0.37797443342690873,0.17738359201773837,0.7776928448747712,0.77597573680548,0.9156638766631897,0.4894660595849402,0.4737097541633624,0.11101910828025477,0.45608039715129156,0.32204893703634907,0.388028306877205,0.9845189312580824,0.4443974374471171,0.7265526341451523,0.7265526341451523,0.5279308086871113,0.016556809806389475,0.5167462219950623,0.6168640247139198,0.0016318580453513851,0.01015109383898958,0.013292995966263293,0.37357019420671495,0.0,0.0,0.001952795390438535,0.0069759997146632904,0.014102584169418838,0.004980719794344473,0.02171074441670557,0.0027752495486489306,8.004477983214585e-05,0.17164781115161404,0.007874483557774026,0.004344356641281297,0.0016964638041863471,0.00280084020396158,0.5689598256545136,0.8325539863585192,0.0029390572296806496,0.42350482680295287,0.003760839717996087,0.008957839337512532,0.012479654209798043,0.9754183327144768,0.003724221556119423,0.6830464282408947,0.2467342568210198,0.034101976734071664,0.3726868724870088,0.6829204975995846,0.0004101528385051485,0.03696734379575502,0.005668797832693323
36,PPG,MRQ,2019-06-30,0.002608695652173913,0.018049889895671637,0.008971415009010808,0.008846277172738911,0.0018064807496895113,0.16989053034328835,0.25025503243004976,0.10679419998564352,0.3913792641662724,0.13286118892769433,0.0628425224178148,0.3020619641260323,0.5641845235443489,0.03100910491164696,0.013660192605251613,0.4858514925553223,0.4123587369727689,0.452669103977675,0.4855071050296002,0.4865087167706579,0.4640309112748007,0.3355219598322666,0.36348670027203095,0.9896844900873627,0.4953818640858405,0.28560661139384885,0.3376739473762627,0.37797443342690873,0.17727351354751458,0.777740029820886,0.7760012120870825,0.9158165212303152,0.489458358397845,0.4729452815226011,0.1110828025477707,0.4553673135785012,0.3214758575442951,0.3875159840555142,0.9845170552663322,0.4468149401668077,0.7265518215136075,0.7265518215136075,0.5279628214922333,0.01659251535662307,0.5165691626995558,0.6168633347664119,0.00162249450350535,0.010458195137748892,0.012456453978731206,0.37457825872284395,0.0,0.0,0.001324632812855769,0.007645638732710273,0.0143217142231057,0.005081137532133675,0.02162617467372993,0.0029020754688828874,7.80213200759717e-05,0.1713486397495508,0.007888732738265016,0.004318142354639376,0.0017246708146725462,0.00278063836838432,0.5689602711367725,0.8325357529763615,0.0029207499909209215,0.42348812753696347,0.0037605792004888386,0.008948995957390236,0.01227797536774606,0.9754183888583008,0.0037239635751925575,0.6830412014895522,0.24633473301457695,0.033965948340762046,0.3726868724870088,0.6829204456625888,0.00037479483518573916,0.03637083392080518,0.005810340849739349
37,PPG,MRQ,2019-03-31,0.002608695652173913,0.018049889895671637,0.008965295338467698,0.008555191445718197,0.0019193857965451057,0.16946737363359748,0.24947839046199702,0.10528078864881678,0.39168281120267123,0.132244141131172,0.062479317497598816,0.30195676187470416,0.564362721076313,0.03089111036350639,0.013660192605251613,0.48603489466444655,0.41258286137905475,0.45290096595355306,0.485702164181288,0.4867033961823367,0.4640309112748007,0.335411608916354,0.3634788607624707,0.9896852746494815,0.4957921312855039,0.2872541237835422,0.3380136476057094,0.37797443342690873,0.17714770958154458,0.7760130607930846,0.7762224447957351,0.9158419619915027,0.48948574039640574,0.4709976209357653,0.11101910828025477,0.4536299277549652,0.32088894509898463,0.38769925400798894,0.984518305927499,0.4468149401668077,0.726552166882014,0.726552166882014,0.5279435410527848,0.01652219003897,0.516136548412842,0.6168636279941028,0.0015639723669676306,0.01028510167844819,0.013201320132013201,0.37463997695852536,0.0,0.0,0.0010848863280214084,0.007348266142459146,0.01405562772934308,0.005944730077120822,0.02071282144959305,0.0029319168618791125,8.105650971023293e-05,0.17103700287240164,0.007790437544030571,0.0041776914977689,0.0016937835000225,0.0027051219830121803,0.5689603050321618,0.832516513979513,0.0028433467469139925,0.4233956716512083,0.003759923415039559,0.008942883126448347,0.01186587373630959,0.9754183920849573,0.0037233141749283796,0.6830196095995238,0.24607916717887668,0.03340939330338835,0.3726751158033342,0.6829111316280198,0.00038893803651350286,0.03475483444139561,0.005810340849739349
38,PPG,MRQ,2018-12-31,0.002608695652173913,0.018049889895671637,0.009116794186131788,0.007748641410431634,0.0020322908434007,0.16969371326901353,0.24908377238093238,0.10533462541573947,0.39122302672106707,0.13227653614048943,0.06220489600232452,0.3019304613118721,0.5641511115071055,0.03089111036350639,0.013660192605251613,0.48576461787205294,0.4122639151085711,0.4525987173064263,0.4854388343265095,0.48644057897657034,0.4640309112748007,0.3353012580004414,0.36340569200657474,0.9896846208477158,0.49462444771723124,0.2857666935693656,0.3375762090646325,0.37797443342690873,0.17728923904326085,0.7737576203687976,0.775798750638558,0.9157910804691276,0.48900056560940774,0.47374464710547187,0.11146496815286625,0.455911190879782,0.32072492579608647,0.3874285143054694,0.9845174400851527,0.44590837664692373,0.7265516996188758,0.7265516996188758,0.5279711884753902,0.01651517421155568,0.5166968513991237,0.6168632485229734,0.0013046542775093802,0.010114800049136207,0.012995049504950494,0.37385821263989466,0.0,0.0,0.0012429314967948974,0.006572894647878429,0.010976067867708057,0.005683643958868894,0.020438815482351987,0.0026603601856134643,8.004477983214585e-05,0.17054906856189378,0.0075300881106528566,0.003851576152021699,0.00141618056876692,0.00239848697871448,0.5689598982874906,0.8324771362253031,0.0024791698508043526,0.4233111237302038,0.003758530993880129,0.009094212652627554,0.010928821027308272,0.9754183069012244,0.0037219353113537557,0.6830024964946974,0.24575728362631746,0.03278684597117708,0.3726692374614968,0.6829051934981737,0.0004313676404967941,0.03232541240523627,0.004607225204848132
39,PPG,MRQ,2018-09-30,0.002608695652173913,0.018049889895671637,0.009197877749339693,0.00827168607617198,0.0019193857965451057,0.16982164436729216,0.24953296530299532,0.10521498815591128,0.391789945450812,0.13254186669299403,0.06230175064771545,0.30195676187470416,0.5641065621241145,0.03098943915362353,0.013660192605251613,0.4863486087984749,0.41276819502271417,0.45307900282788804,0.4860240117815728,0.4870246172116068,0.4640309112748007,0.3353564334583977,0.363431823705109,0.9896858412776786,0.49515043130654324,0.28763431895039454,0.3380041121606723,0.37797443342690873,0.17721061156452958,0.7752769756336939,0.775798750638558,0.91576563970794,0.48914603247676164,0.4729072164948454,0.11063694267515924,0.45526458119937036,0.32128614847106346,0.38789501963904155,0.9845185464392618,0.4470566904387767,0.7265526544609409,0.7265526544609409,0.5279231692677071,0.016539270237853673,0.5165355977980004,0.6168640419626075,0.001310376441970846,0.010625704937072152,0.013350293362669598,0.3749177090190915,0.0,0.0,0.0015121440300446545,0.0073923213410148686,0.010713894410618418,0.007230077120822622,0.020103919300168464,0.0029274406529296785,8.282703699688532e-05,0.17117234231619213,0.007616307728200022,0.00402064627595996,0.001551855012870222,0.002591366408868798,0.568959414067644,0.8325109037080798,0.002654907416357834,0.4234437083307044,0.0037596000139960783,0.009175205593434472,0.01177028291127272,0.9754183114185435,0.0037229939227433058,0.6830305767657027,0.24552436286466656,0.03333340489925554,0.3726751158033342,0.6829094177071604,0.0004030812378412666,0.03655520970033513,0.00010615726278451917
40,PPG,MRQ,2018-06-30,0.0024456521739130437,0.018049889895671637,0.009253216513923215,0.0078623467725491,0.0019193857965451057,0.17006963388087845,0.25032220146512457,0.10617806809752829,0.3919104714799704,0.13302624921326406,0.06293130584275648,0.30195676187470416,0.5643849957678085,0.03106810218571724,0.013660192605251613,0.4863148241994257,0.41284577654796695,0.4531535298915631,0.4859898764300274,0.48699054831456295,0.4640309112748007,0.3353564334583977,0.36346840808305697,0.989685448996619,0.4958342099726489,0.2876209787691015,0.33806966834530233,0.37797443342690873,0.17725778805176834,0.7732385859615349,0.7758108178772117,0.9159182842750655,0.4889449459248313,0.4723457573354481,0.11101910828025477,0.45492616865635116,0.3204779087736494,0.3879824893890863,0.9845182097227938,0.443913936903179,0.7265525528819977,0.7265525528819977,0.5279195314489432,0.016589174486425773,0.5164521295242912,0.6168639729678567,0.001318699590278433,0.01086859414609088,0.012949211587825448,0.3741153719552337,0.0,0.0,0.0014009766655683866,0.007879131285055602,0.010713894410618418,0.006908740359897173,0.01997875608056452,0.002918488235030811,8.232117205784178e-05,0.17100138722929886,0.0076576062004705125,0.004038924127196529,0.0015664052354739627,0.002618542687681065,0.5689598062857197,0.8324972220555754,0.0026667146908673656,0.42327642122531395,0.0037589621952714364,0.009230482509086894,0.011255124963675272,0.9754182255894793,0.0037223623142671877,0.6829929531676773,0.24510057647888508,0.03296943248126782,0.3726574807778222,0.6828986956029292,0.00044551084182455785,0.037303558452544926,0.0001556973187506281
41,PPG,MRQ,2018-03-31,0.0024456521739130437,0.018049889895671637,0.009496723535970206,0.008458920905792075,0.0018064807496895113,0.1696799360738143,0.24968409563191368,0.10563371856530998,0.3916381719326126,0.13248633239130703,0.06261652824523596,0.3018252590605439,0.5641956608900967,0.031028770669670386,0.013660192605251613,0.48614590120417966,0.41259148154852726,0.4529299487005378,0.48580944671471626,0.4868104698587601,0.4640309112748007,0.3354667843743103,0.3634657949132036,0.9896853618230503,0.4954975804754892,0.2869939902483275,0.33790398998778276,0.37797443342690873,0.17722633706027582,0.7720212143517733,0.7771475997591915,0.9158674027526903,0.4897107861970768,0.47048374306106266,0.11101910828025477,0.45305583504805763,0.32094427691201055,0.3877284105913372,0.9845181135180887,0.4479632539586607,0.7265522075135913,0.7265522075135913,0.527933355160246,0.01651250151539784,0.5160061958321983,0.6168636624914781,0.0013571941512010217,0.010955140875741232,0.013476347634763476,0.3768926925608953,0.0,0.0,0.001837609928451077,0.00766986909191592,0.0111991109580679,0.00813383676092545,0.02108154552896683,0.0029289327225794897,8.409169934449416e-05,0.1718241085849727,0.007721848268446832,0.004219297659136353,0.0015999728542878558,0.002720513857737712,0.5689590363761637,0.832532524423933,0.0026995723083156073,0.42327915536206284,0.0037608576847207244,0.00947371737744303,0.012427778944442422,0.9754182546293882,0.0037242393479074826,0.682995656659751,0.24467840759839285,0.03337030787901528,0.37265160243598483,0.6828979973388752,0.0004101528385051485,0.03855622918993959,0.00013446586619372429
42,PPG,MRQ,2017-12-31,0.0024456521739130437,0.018049889895671637,0.00967138663996719,0.00885461556596086,0.0016935757028339166,0.16955987765850664,0.24952456917361096,0.10577728327710381,0.3913614084582489,0.13233361306166774,0.0626407419065837,0.30185155962337595,0.56572147725754,0.0311074337017641,0.013660192605251613,0.48525784888631485,0.4123975277353953,0.4527394906489237,0.4849170510957448,0.4859198115503295,0.4640309112748007,0.335411608916354,0.36346840808305697,0.9896833132441843,0.4946770460761624,0.28659378480953557,0.33777883727167085,0.37797443342690873,0.17717916057303706,0.7738897382179191,0.7750157209303572,0.9158419619915027,0.48851453513495474,0.4729072164948454,0.11101910828025477,0.4551286118740501,0.3194404372794138,0.387528479734092,0.9845176805969156,0.44663362746283086,0.7265507244610221,0.7265507244610221,0.5280795954745535,0.016484855814515222,0.5164888910831377,0.6168624033372762,0.0010783686828968648,0.010555909187354127,0.013144022735606893,0.3763578011849901,0.0,0.0,0.001958152853786789,0.006700654723690024,0.01105041556449467,0.007209993573264781,0.020252762047805583,0.002581280494173468,8.282703699688532e-05,0.17219985361970686,0.007429377801080958,0.003977356628294402,0.0013717640997660274,0.0025374948473294375,0.5689575643478301,0.8325442477741447,0.002472490988455527,0.42331928407680824,0.0037623129894163864,0.009648185270607857,0.013248378990957866,0.9754183411037838,0.0037256804827403155,0.6830057677201066,0.24415433588467833,0.03379303667537238,0.3726574807778222,0.6829009404353005,0.00038893803651350286,0.035123586000455516,8.492581022761532e-05
43,PPG,MRQ,2017-09-30,0.0024456521739130437,0.018049889895671637,0.009747551007610765,0.008236058396041841,0.0016935757028339166,0.16952838692662267,0.2499863562897504,0.10540042590864498,0.39213366783026365,0.1324786192938505,0.06251967359984503,0.30185155962337595,0.5646077426827638,0.03106810218571724,0.013660192605251613,0.4874779796809769,0.41394484815571475,0.4542258915299992,0.4871553548613617,0.4881537577993439,0.4640309112748007,0.3354667843743103,0.3635180583102721,0.9896885872450946,0.49552913949084787,0.2911961473556426,0.3386847045501952,0.37797443342690873,0.1771319840857983,0.7754751524073761,0.7757772977698402,0.91576563970794,0.48914945522658176,0.47306582077716103,0.11101910828025477,0.4555244336877601,0.3225409949450437,0.3890113002586606,0.9845220579109996,0.4476610661186994,0.7265543203556075,0.7265543203556075,0.527879879224417,0.01649542131651417,0.5165775095269267,0.6168654391063111,0.0012237636798950212,0.010874177806068322,0.013178401173450677,0.3762960829493088,0.0,0.0,0.0030979531811278,0.0072557502254921285,0.01068259011723458,0.009539685089974293,0.020229082519772405,0.0026931857179093117,7.751545513692815e-05,0.17281422346322953,0.007607854824518928,0.004236373020159989,0.0013805708134472388,0.002798194725493129,0.5689576176120132,0.8325753424389274,0.002705177782072657,0.4231907375859676,0.0037614865200830475,0.009724264513750332,0.01241994219491768,0.975417935835721,0.0037248620604895706,0.6829785525665648,0.2440993407048441,0.03345773955592668,0.37265160243598483,0.6828984763133915,0.00028993562721915667,0.041419476589698814,0.004359524925017587
44,PPG,MRQ,2017-06-30,0.002173913043478261,0.018049889895671637,0.009736798044897146,0.008334603043210312,0.0016935757028339166,0.16948705534102496,0.2501920614596671,0.10519704256693704,0.3925041737717505,0.13252181263960705,0.06237439163175864,0.3018252590605439,0.5649752750924399,0.031028770669670386,0.013660192605251613,0.48692294698231137,0.41359142120734094,0.4538905197434613,0.4865994362790516,0.48759892147605927,0.4640598544159998,0.335411608916354,0.36354157683895294,0.9896871924679944,0.49552913949084787,0.28730748450871446,0.3379695461724128,0.37797443342690873,0.1770690821028133,0.7777022818639941,0.7757746161612504,0.9161218103645661,0.4893573872781523,0.4725931800158605,0.11095541401273885,0.45507422414392207,0.32155687912765446,0.3886530908060963,0.9845208553521853,0.44814456666263747,0.7265534061451198,0.7265534061451198,0.527886427298192,0.01650068318707491,0.5164746837173999,0.6168646801640523,0.0012008750220491575,0.010198554948797837,0.012548129812981298,0.37633722843976297,0.0,0.0,0.00213628851011623,0.0073350495828924285,0.010604329383774987,0.00753133033419023,0.020171575094548973,0.002634995001566673,7.80213200759717e-05,0.17232985071703194,0.007520186137769289,0.004082935268989845,0.0014043106503270264,0.0026488454410469554,0.5689577677201657,0.8325478997432851,0.0025636097533573658,0.42373377920794164,0.0037618189044888468,0.009713523569000161,0.012554680311695323,0.9754181178191506,0.0037251912085686746,0.6830943972019219,0.24330191059724765,0.03354678085506617,0.37272802087987017,0.6829443424514058,0.00033943683186632976,0.038746027786514536,0.004380756377574491
45,PPG,MRQ,2017-03-31,0.002173913043478261,0.018049889895671637,0.009770915875232222,0.00796468159845482,0.0016935757028339166,0.1691308164365875,0.24961692659683885,0.10538846218266217,0.3917497701077592,0.1320312596413718,0.0623663204113094,0.3017989584977119,0.5644518198422951,0.030969773395600104,0.013660192605251613,0.48615555394676513,0.4126992336669339,0.45303759890362405,0.4858240761510928,0.486825070814636,0.4640309112748007,0.335411608916354,0.3635468031786598,0.9896857541041097,0.49562381653692406,0.2872274434209561,0.33795166721296827,0.37797443342690873,0.17702190561557454,0.7761451786422061,0.7757478000753532,0.9160963696033785,0.4891400426645765,0.47123552735923874,0.11101910828025477,0.4538081986481628,0.3201913690276224,0.3877783933056485,0.9845188831557299,0.4485071920705911,0.7265521465662254,0.7265521465662254,0.527922077922078,0.016446853416020986,0.5161843206801351,0.6168636107454151,0.0011498957386651886,0.009975208549700158,0.012662724605793912,0.37616236010533244,0.0,0.0,0.0018416280259622674,0.0070398797525690875,0.010979980904381037,0.0038761246786632388,0.01962018037034782,0.0025768042852240343,5.551033028853421e-05,0.17154986813308143,0.007429860824148449,0.0038850053799412126,0.0013445781575327222,0.0024901167329399107,0.5689582325712184,0.8325007946340824,0.002401587708698795,0.4238727574820704,0.0037611182022279726,0.009747603267812903,0.01203950226404696,0.9754182462400812,0.0037244973288343476,0.6831198010157742,0.24265652598683998,0.033101481214223086,0.3727221425380329,0.6829387736513072,0.0002828640265552748,0.03604004208106027,0.004274599114789971
46,PPG,MRQ,2016-12-31,0.002173913043478261,0.018049889895671637,0.010033205974870365,0.007182388707086649,0.0018064807496895113,0.16909145302173256,0.24941122142692218,0.10710525686119685,0.39024989063378834,0.1319248188964717,0.06204347159333963,0.3019041607490401,0.5636722056399518,0.030969773395600104,0.013660192605251613,0.48616520668935065,0.41242769832854914,0.45276019261105566,0.4858387055874694,0.4868396717705119,0.4640309112748007,0.3353564334583977,0.36353373732939265,0.989685884864463,0.49480328213759733,0.29447116186308975,0.3391662445245687,0.3779587705875974,0.1770061801198283,0.7714833059660646,0.7760923867791333,0.9160454880810034,0.48901511229614314,0.4730309278350516,0.11095541401273885,0.4552827104427464,0.32288286650409653,0.38751181882932156,0.9845181616204413,0.44385349933518675,0.7265521059346481,0.7265521059346481,0.5279238968314599,0.01642112871550181,0.516513576381107,0.6168635934967274,0.0011485952467421283,0.009659731760974684,0.012857535753575356,0.37328217577353523,0.0,0.0,0.0024724693352191607,0.006152167501671278,0.010205199643131057,0.004820051413881748,0.018791396889186573,0.002258993449814237,5.72808575751866e-05,0.17090166342861113,0.007426962685743502,0.0037928946296306096,0.0012687638397553362,0.002456928003062983,0.5689589879541791,0.8324503286547287,0.0023076662069184306,0.4237408038362042,0.0037599503651265156,0.01000960022100257,0.011148439343742884,0.9754182320427924,0.0037233408626104695,0.6830959291807637,0.24227802974915727,0.03279578604201136,0.3727162641961955,0.6829335914932879,0.0003040788285469204,0.03564959925382037,0.004451527886097504
47,PPG,MRQ,2016-09-30,0.002173913043478261,0.018049889895671637,0.010120134631897508,0.007834299449893459,0.0016935757028339166,0.16928039741303638,0.2500283369366722,0.11113105065441581,0.38790186502870305,0.13229967543285903,0.06251160237939579,0.3020356635632003,0.5607764957455339,0.03108776794374067,0.013660192605251613,0.48364101450324576,0.409070142318998,0.44951412494876264,0.4832834307003599,0.4842893714775194,0.4640309112748007,0.335411608916354,0.36356248219778037,0.9896793468468056,0.49533978539869555,0.2855599207593231,0.3376489168330404,0.37797443342690873,0.1770690821028133,0.7752958496121398,0.7748467795892043,0.9160200473198158,0.4885538967578858,0.4736716891356067,0.11114649681528663,0.4560471602051022,0.3197862611108257,0.3842837685300501,0.9845074828981706,0.4464523147588541,0.7265480834085017,0.7265480834085017,0.5276001309614755,0.016454620939229697,0.5166798025602384,0.616860178256563,0.0011454740661267831,0.009958457569767832,0.014049321598826547,0.37137919684002635,0.0,0.0,0.001279094374395611,0.006830617559429405,0.01120302399474088,0.011447622107969152,0.019532227837653154,0.00250070873308366,9.572659294249557e-05,0.17126316220610419,0.0075508581025549755,0.0039658127222502535,0.00141835033880432,0.002577177024356199,0.5689590412183622,0.8324663390991487,0.002399798727712502,0.4239051464866343,0.0037618458545758036,0.010096431722906004,0.01226566564045103,0.9754184191888724,0.003725217896250764,0.6831305338793067,0.24189629850089608,0.03348853164192554,0.3727221425380329,0.6829422649715763,0.00032529363053856607,0.034798216977755606,0.004614302355700433
48,PPG,MRQ,2016-06-30,0.002173913043478261,0.018049889895671637,0.01011181473671228,0.007894184273941991,0.0015806706559783224,0.16930007912046388,0.250498520182196,0.1056516641542842,0.3924907819907329,0.13248787501079834,0.06281023753601783,0.30195676187470416,0.5664008553481533,0.03108776794374067,0.013660192605251613,0.4863196505707184,0.41362159180049485,0.45389880052831405,0.48598499995123523,0.486985681329271,0.4640309112748007,0.3354667843743103,0.3635990665757283,0.9896857976908942,0.4954555017883442,0.28788111230431623,0.33812807294615455,0.3780479282882926,0.17691182714535078,0.7776834078855482,0.7770202233511794,0.9159946065586282,0.49013777423713323,0.47095321173671695,0.11146496815286625,0.4534909368890823,0.32249751994909476,0.3886405951275184,0.9845209034545378,0.44500181312703974,0.7265522887767457,0.7265522887767457,0.5279166211939321,0.016474248551638808,0.5161154149563071,0.6168637314862289,0.0013296237224321404,0.009986375869655041,0.014335808580858086,0.3692396313364055,0.0,0.0,0.002184505680250515,0.0071522205088861805,0.011543458185290114,0.011929627249357326,0.01919733165546963,0.0026902015786096894,9.87617825767568e-05,0.1718241085849727,0.007658572246605495,0.004148110238530769,0.0015426653985941752,0.0027832838468527703,0.5689587991084388,0.8324980953525438,0.0025938435320257114,0.4233331230151219,0.003761881788025079,0.010088121126385607,0.012349261115307935,0.975418233333455,0.0037252534798268835,0.6830082729560948,0.24236537503477637,0.033498236307644425,0.3726574807778222,0.6829025966483868,0.0004525824424884397,0.03853996073880459,0.004854925484678676
49,PPG,MRQ,2016-03-31,0.0019565217391304345,0.018049889895671637,0.010138505540331178,0.008450582512570127,0.0014677656091227277,0.169166243509957,0.24978484918452593,0.10550809944249037,0.3918390486478765,0.13212073157186754,0.06261652824523596,0.3019304613118721,0.5644740945337906,0.0311074337017641,0.013660192605251613,0.4862134704022781,0.41277250510745045,0.4530872836127408,0.4858728409390148,0.4868737406675557,0.4640309112748007,0.3355219598322666,0.3635572558580735,0.9896857976908942,0.4955501788344204,0.28759429840651535,0.338041062010191,0.37801178327449725,0.17710053309430582,0.7763150444482193,0.7755909259728541,0.9162744549316915,0.4890912684796402,0.47145757335448063,0.1110828025477707,0.4539985557036111,0.3203277224240077,0.3878700282818859,0.9845190274627875,0.44735887827873805,0.7265521262504367,0.7265521262504367,0.5279118920295391,0.016435410935595248,0.5162276531456351,0.6168635934967274,0.001109060292281091,0.010095257239215161,0.013568023469013566,0.37032998683344304,0.0,0.0,0.0012523070576543418,0.007147814989030608,0.011887805412512328,0.014098650385604114,0.0200024356085977,0.0027797257575983645,0.00012531969187654261,0.17149466388627216,0.007719433153109377,0.00416422360738406,0.0014783380986618476,0.0027421586815704908,0.5689594189098425,0.8324783535483499,0.0025488208438706797,0.4234124550444823,0.0037627621575323316,0.010114782099239645,0.013254539512382632,0.9754186076256149,0.003726125277441807,0.6830249985603907,0.2419383536384164,0.033959438243969395,0.3726692374614968,0.682911760642746,0.0008556636803297063,0.03643048490830016,0.00026893173238744857
50,PPG,MRQ,2015-12-31,0.0019565217391304345,0.018049889895671637,0.010233663555201875,0.007490151220551258,0.0015806706559783224,0.16849116094519434,0.24905438592808715,0.10510133275907449,0.3913658723852548,0.13132319729486244,0.062317893088613935,0.30195676187470416,0.5641176994698622,0.031028770669670386,0.013660192605251613,0.48603972103573934,0.4124966596843294,0.4528181581050252,0.48571191713887235,0.48671313015292067,0.4640309112748007,0.3353564334583977,0.36361213242499546,0.9896860592116005,0.49451925099936883,0.2871540724238442,0.33806370869215413,0.3782527500331329,0.17677029768363448,0.775258101655248,0.7756070156243924,0.9162744549316915,0.48899286442231255,0.47409040444091993,0.11121019108280254,0.45621032339548645,0.32170706547729616,0.3875159840555142,0.9845190755651402,0.44518312583101655,0.7265518621451847,0.7265518621451847,0.5279231692677071,0.016350093462931814,0.5167103483965745,0.6168633692637873,0.0011202445228194109,0.009545266731437123,0.013350293362669598,0.36972309084924293,0.0,0.0,0.0017907321241538556,0.0062733192976995155,0.011042589491148712,0.015363913881748072,0.019779171487142016,0.002475343549036869,0.000130378341266978,0.17117768466265754,0.007704942461084643,0.004106744575205903,0.001392695998950356,0.002700552520203038,0.568959767548132,0.8324560977074288,0.0024868028363458678,0.4233317349149263,0.003760983451793189,0.010209833761510141,0.011858416080813654,0.9754183346504707,0.0037243638904239,0.683008245921174,0.24153559482139506,0.03324738208186294,0.3726692374614968,0.6829068554820373,0.0010183104955989893,0.03639794800603017,0.001988679389496659
51,PPG,MRQ,2015-09-30,0.0019565217391304345,0.018049889895671637,0.01028885925406161,0.006646457433639655,0.0018064807496895113,0.1694201375357715,0.2500031485485191,0.10535855286770511,0.3921827710273282,0.1323999456997939,0.0623663204113094,0.30195676187470416,0.5647079787944936,0.031127099459787526,0.013660192605251613,0.48662371196216125,0.4132379942589672,0.45353030560236496,0.4862922181151434,0.48729230140266516,0.4640309112748007,0.3354667843743103,0.3635363504992461,0.989686582253013,0.49523458868083314,0.28615355882686444,0.3378265144968563,0.3780515427896721,0.17697472912833578,0.7761923635883209,0.7758537236146474,0.9162235734093164,0.4892649730330098,0.47374464710547187,0.11057324840764331,0.4560864402324169,0.32173077911145015,0.3882865509011467,0.9845199414074864,0.44530400096700107,0.7265527357240953,0.7265527357240953,0.527892975371967,0.01645524735239169,0.5166808681126687,0.6168641109573583,0.001183968627049372,0.010081298089271556,0.013877429409607626,0.3708545918367347,0.0,0.0,0.0013942798363830694,0.007050893552208019,0.011422154048427743,0.016348007712082262,0.019846827281522525,0.002746900225302517,0.00021662831337390144,0.17140562477851523,0.0077945432401042465,0.004226512600413945,0.0015131820527918584,0.002815510584559352,0.5689598256545136,0.8324659686095257,0.00257875645904131,0.42338511367699333,0.0037587825280250586,0.010264967771335046,0.010579460754811934,0.9754178861452102,0.003722184396386591,0.6830197718090482,0.241181361163051,0.032538298303313035,0.37268099414517153,0.6829128859443203,0.002821568664888866,0.039543181892129325,0.0021372995573949857
52,PPG,MRQ,2015-06-30,0.0019565217391304345,0.018049889895671637,0.010331829751168083,0.008695428058996407,0.0013548605622671335,0.1698806894895746,0.2505950756701161,0.10681214557461775,0.3917274504727299,0.13297842800903356,0.06300394682679969,0.3020356635632003,0.5644518198422951,0.03124509400792809,0.013660192605251613,0.48615555394676513,0.4127380244295603,0.45303759890362405,0.4858240761510928,0.486825070814636,0.4640309112748007,0.335411608916354,0.3635180583102721,0.989685100302344,0.49533978539869555,0.2875209274094035,0.33794570755982006,0.37790214339931805,0.17725778805176834,0.7762301115452127,0.7754555047390728,0.9162235734093164,0.48903051467033354,0.47315781126090406,0.11203821656050955,0.4555576706339495,0.3210667973551393,0.3878783587342711,0.984517969211031,0.44669406503082315,0.7265520043557051,0.7265520043557051,0.5279166211939321,0.016510455232401997,0.5165645453056911,0.6168634900046012,0.0011743449868187247,0.010022669659508415,0.013820132013201319,0.3735290487162607,0.0,0.0,0.0009817551585675215,0.007544311776032111,0.011414327975081783,0.017111182519280205,0.01989418633758888,0.002776741618298742,0.00023736877587468656,0.17151247170782352,0.007785365801821915,0.004231803557350847,0.001541771963872893,0.0028174345689000436,0.5689596513353689,0.8324697264328442,0.002569751921410304,0.4237207815424738,0.0037630855585758117,0.010307890242806417,0.013898624954170404,0.975418780574406,0.003726445529626881,0.6830902158008479,0.2406378793858656,0.0345979925607977,0.3727103858543582,0.682937082813557,0.0033590103153438885,0.0399878528898192,0.0020736051997242745
53,PPG,MRQ,2015-03-31,0.0018206521739130435,0.018049889895671637,0.01034127398938609,0.008547611088243699,0.0013548605622671335,0.16945162826765547,0.24967150143783715,0.10562175483932716,0.3916337080056067,0.13230276067184163,0.06268109800882991,0.3019041607490401,0.5643849957678085,0.03116643097583438,0.013660192605251613,0.486083158377374,0.4126259622264174,0.4529506506626698,0.4857509289692099,0.48675206603525645,0.46400196813360156,0.335411608916354,0.3634997661212981,0.9896853618230503,0.49552913949084787,0.28788778239496277,0.3381578712118955,0.3780587717924312,0.17717916057303706,0.7761263046637601,0.7767802193823987,0.9164016587376294,0.4898502632522455,0.46984615384615386,0.11140127388535032,0.4524575700166487,0.32121895984096055,0.3877492367223002,0.9845184021322041,0.4457875015109392,0.7265518824609734,0.7265518824609734,0.5279144385026738,0.0164426355673969,0.5158946680111571,0.616863386512475,0.0012078976784336839,0.009294002032452231,0.015229647964796478,0.37376563528637263,0.0,0.0,0.0010192574020052984,0.006828414799501619,0.011602153735384809,0.01761327120822622,0.019681070585290276,0.002806583011294967,0.00022472215239859806,0.17134685896739568,0.007753969302434991,0.004176970003641141,0.0015402403614935517,0.0027777523918732826,0.5689597384949412,0.8324602260203702,0.002531288830205012,0.4236586956064526,0.003762807074343926,0.010317323925746526,0.013674849461051448,0.9754187883183818,0.0037261697569119564,0.6830756710134915,0.24025291312702593,0.034305452374743486,0.3726986291706835,0.6829306022306444,0.0030761462887886138,0.03841523594676963,0.004394910679279093
54,PPG,MRQ,2014-12-31,0.0018206521739130435,0.018049889895671637,0.010431344429001602,0.008760240115403363,0.0012419555154115389,0.16877654570289283,0.24891165172855312,0.1052269518818941,0.39112035639993215,0.1314944280583974,0.062325964309063175,0.30232496975435275,0.5621909386554995,0.031127099459787526,0.013660192605251613,0.484934482009701,0.41081572663718574,0.45114543956476194,0.4845854505378756,0.48558885655047546,0.49311876817991057,0.3354667843743103,0.3635389636690995,0.9896826594424186,0.49353040185146224,0.2743008077479773,0.3356405137221014,0.3780587717924312,0.17681747417087323,0.7748145631617689,0.7763913861368881,0.9163762179764418,0.4893274382172265,0.4727644726407613,0.11159235668789809,0.45466329462739874,0.31760065449630265,0.3859040415189747,0.9845128703616585,0.4440952496071558,0.7265500743557863,0.7265500743557863,0.5282312925170068,0.016358069790527858,0.5163697268030124,0.6168619031253328,0.0010440356961280695,0.009902620969993411,0.01571094609460946,0.37575090520078996,0.0,0.0,0.0009536284759891886,0.006506811850044845,0.012099109392853231,0.018657615681233933,0.02101388973458632,0.0027230271109055368,0.00023888637069181717,0.17152849874721976,0.007768459994459726,0.0042171331767530745,0.0014240938477268492,0.0027231593362061625,0.5689595690179949,0.8324658098282588,0.002460087386950564,0.42316894861926097,0.0037634718431555246,0.010407293698849948,0.014137081332117033,0.9754188405902179,0.003726828053070164,0.6829736952924725,0.2398808869105002,0.033917466028994314,0.37265160243598483,0.6828972875332668,0.0035145855299492895,0.03493921022092557,0.0034041095599569144
55,PPG,MRQ,2014-09-30,0.0018206521739130435,0.018049889895671637,0.010476918083730502,0.007456039611916019,0.0014677656091227277,0.16977440826946621,0.25012909048928444,0.1065369798770129,0.3914372952173486,0.13272389579296812,0.0628990209609595,0.3023775708800169,0.5645186439167816,0.031186096733857808,0.013660192605251613,0.4863244769420112,0.4129664589205824,0.45320321460067986,0.4859898764300274,0.48699054831456295,0.46420457012199534,0.3354667843743103,0.36349453978159124,0.9896856233437566,0.4955501788344204,0.2870340107922067,0.3383521559045264,0.37839973975590063,0.17716343507729082,0.7762867334805504,0.7757625489225967,0.9163762179764418,0.4892273227849888,0.47322442505947665,0.11140127388535032,0.45568155379701897,0.32207462680668253,0.3880741243653237,0.9845188350533772,0.4417381844554575,0.7265522075135913,0.7265522075135913,0.5279020699188767,0.016476712443409314,0.5165862115384411,0.6168636624914781,0.0008708101719764197,0.010293477168414352,0.01084066740007334,0.3826324884792627,0.0,0.0,0.0033403783976362874,0.006843834118996122,0.010643459750504783,0.014600739074550128,0.014112998707774327,0.0028423926828904373,0.00025886803578403696,0.1732042147552048,0.007433241985620887,0.004109390053674353,0.001312159240503335,0.0031060322200037616,0.5689567072787016,0.8325539598949747,0.0027937919735936865,0.42303207352724675,0.003760282749532315,0.010452816418545287,0.012084998853410741,0.9754177473989785,0.003723670010689573,0.6829452094976561,0.23989382695281414,0.032802166426231155,0.37263396741047283,0.6828833972722955,0.004030812378412667,0.048252226066396973,0.0027883974358067034
56,PPG,MRQ,2014-06-30,0.0018206521739130435,0.018049889895671637,0.010509270245858121,0.007964302580581095,0.0013548605622671335,0.1699259574166578,0.2504229550177368,0.10602852152274304,0.3921292039032578,0.13295066085819007,0.06325415466072626,0.3024038714428489,0.5646188800285116,0.031304091281998375,0.013660192605251613,0.48639687251140235,0.41307421103898906,0.4533025840189133,0.48606302361191034,0.4870635530939425,0.46423351326319445,0.3354667843743103,0.3634971529514447,0.989685666930541,0.4949295181990322,0.2876209787691015,0.33743317738907597,0.37743587272135803,0.17710053309430582,0.7767113979955835,0.7758027730514426,0.9163762179764418,0.48925042634627447,0.47196193497224426,0.11171974522292993,0.4543007097598782,0.3199898031373138,0.3881615941153685,0.9845187869510247,0.4469962528707845,0.7265523090925343,0.7265523090925343,0.5278987958819892,0.016497091751612816,0.5162915862914549,0.6168637487349166,0.0008799136154378428,0.010304644488369236,0.011184451778511184,0.38536866359447003,0.0,0.0,0.002694804064171696,0.0073196302633979264,0.010866502840864626,0.0143396529562982,0.01448510557686713,0.002930424792229301,0.0003319655194758284,0.17340188157442513,0.007456668604394206,0.004160616136745263,0.0013828682170162504,0.003130803518390164,0.5689566298035262,0.8325627722552918,0.002807388229089511,0.42310480156476754,0.003761612287155512,0.010485132422535633,0.01294865095736805,0.9754178971158425,0.0037249866030059885,0.6829607455654396,0.23944254297711554,0.033177033209656676,0.3726398457523102,0.6828895258377926,0.006555373815418494,0.04899515200156177,0.003007789112228043
57,PPG,MRQ,2014-03-31,0.0016576086956521738,0.018049889895671637,0.010528365034926634,0.0073317217493342555,0.0014677656091227277,0.16950280070696694,0.24945320207384394,0.10552006316847319,0.3914774705604014,0.1322626525650677,0.0625681009225405,0.3023775708800169,0.5642179355815922,0.031186096733857808,0.013660192605251613,0.4907840440165062,0.41669037213271615,0.4567805136570844,0.490334819033872,0.49132703220970864,0.4640309112748007,0.33728757448686825,0.3634710212529104,0.9896966508002053,0.49520302966547447,0.29832647425678516,0.34001728299412975,0.37811660381450374,0.17716343507729082,0.7760413717607535,0.7757920466170837,0.9165543033047548,0.4891990850989731,0.4717240285487708,0.11159235668789809,0.4541526542723073,0.32397369367517853,0.39167287979573734,0.9845309087438725,0.44596881421491597,0.7265586984080548,0.7265586984080548,0.5278354978354979,0.016428729195200657,0.5162601524947602,0.6168691044524469,0.0008822545008993516,0.010363272918132377,0.011299046571323797,0.3848646313364055,0.0,0.0,0.0034622606888090627,0.006949566595529856,0.010659111897196701,0.015203245501285347,0.014529081843214461,0.002878202354485907,0.0002186517731300756,0.17297449385719196,0.0074685026695477386,0.004116604994951946,0.0013364096115095695,0.0030836659020432233,0.5689570074950066,0.8325387698204341,0.0027600994983518414,0.42307325383304945,0.003760471400141012,0.01050420587046467,0.011941858060969254,0.9754177745028936,0.0037238568244641994,0.6829536263696455,0.23896861392736754,0.032958201382846594,0.3726398457523102,0.682889266152814,0.003394368318663298,0.04819799789594698,0.00013446586619372429
58,PPG,MRQ,2013-12-31,0.0016576086956521738,0.018049889895671637,0.01079528652628731,0.007187694957318797,0.0014677656091227277,0.1693788059501738,0.24914674335131504,0.10553800875744741,0.39113821210795563,0.1320528563142501,0.06260845702478672,0.3024038714428489,0.5640174633581324,0.03116643097583438,0.013660192605251613,0.48586597166920054,0.4122725352780436,0.45253247102760397,0.4854193284113407,0.4864211110354024,0.4640309112748007,0.3366806444493489,0.3634605685734967,0.9896847080212846,0.49371975594361456,0.2876009684971619,0.33791948508596803,0.37809491680622653,0.17716343507729082,0.7712662552139367,0.7758202035072759,0.9165288625435672,0.48878065393346687,0.47282157018239496,0.11184713375796178,0.4547720700876549,0.32024077243210985,0.38740352294831376,0.984517632494563,0.4468149401668077,0.7265514456715181,0.7265514456715181,0.5279260795227182,0.016395195210595303,0.5163873084181129,0.6168629811683141,0.0008858958782839208,0.009115324913174088,0.010932343234323431,0.38455604015799866,0.0,0.0,0.0015295557859264794,0.006332793815749741,0.011253893471489616,0.0194810411311054,0.014704986908603787,0.0027215350412557256,0.00025962683319260226,0.1710868647727455,0.0073808339827981,0.0038150204495485613,0.0014106923269076143,0.002769575458425344,0.5689585666829126,0.8324258498760699,0.0024176885375754285,0.4228832102971797,0.003761163119039567,0.010770829039138664,0.012004080243692457,0.9754184127355593,0.0037245418083044967,0.6829128306742538,0.23706481020192935,0.03287159540488668,0.3726222107267982,0.682874244819491,0.004448036817581697,0.03912020216261944,0.00024062312897824343
59,PPG,MRQ,2013-09-30,0.0016576086956521738,0.018049889895671637,0.010862574851649357,0.006331114562700548,0.0015806706559783224,0.16964057265895932,0.24973867047291198,0.10669849017778096,0.39090162397664474,0.1324755340548679,0.06264881312703294,0.3024038714428489,0.5636722056399518,0.031127099459787526,0.013660192605251613,0.4857356596442965,0.4120182402786039,0.45228818787444675,0.4852827870051593,0.4862848354472273,0.4640309112748007,0.3367358199073052,0.36347624759261726,0.9896841413930876,0.4952240690090469,0.28761430867845494,0.33784677731756013,0.3778045518620706,0.1770690821028133,0.7760319347715305,0.7758094770729169,0.9164779810211922,0.489233312597174,0.47370658207771615,0.1121656050955414,0.4560471602051022,0.3217525166094246,0.3871327832457942,0.984516285628691,0.4479028163906684,0.7265510901452172,0.7265510901452172,0.5279515442540653,0.016432028304520487,0.5166485463556154,0.6168627138136548,0.0008830347960531878,0.009779780450489687,0.010554180418041804,0.3824061882817643,0.0,0.0,0.002126912949256786,0.007183059147875186,0.010514329540296453,0.02223248714652956,0.014863978025397986,0.0028021068023455333,0.0002770791735896044,0.17158370299402906,0.0074996576574009165,0.004001406432553045,0.001416308202298532,0.002944658033428266,0.5689584649967447,0.8324488466962369,0.0025546052157263592,0.42284985382884305,0.003760471400141012,0.01083804216023783,0.010639458853241383,0.9754178448440063,0.0037238568244641994,0.6829048463609962,0.23679306931333666,0.03211879499519707,0.37261633238496084,0.6828716421989267,0.004858189656086845,0.04403327440538811,0.0001910830730121345
60,PPG,MRQ,2013-06-30,0.0016576086956521738,0.018049889895671637,0.010842707568486721,0.0055484426534586516,0.0018064807496895113,0.16984132607471963,0.2497680569257572,0.10567559160624984,0.39169620298368885,0.13264367957942022,0.0627698814337716,0.3023775708800169,0.564318171693322,0.031146765217810953,0.013660192605251613,0.4862955187142547,0.41275957485324166,0.45300447576421293,0.4858435820662616,0.48684453875580386,0.4640309112748007,0.3367909953652615,0.363450115894083,0.9896853618230503,0.4953818640858405,0.28113098057002595,0.3366619982717006,0.3777912986903456,0.17716343507729082,0.7777211558424401,0.7757746161612504,0.9165034217823796,0.4893522531534222,0.47305630452022207,0.11152866242038216,0.45547306749819466,0.319584695220517,0.3878741935080785,0.9845183540298516,0.4456666263749547,0.726551902776762,0.726551902776762,0.527904252610135,0.016449024981649227,0.5165309804041357,0.6168633951368188,0.0008788732218993944,0.009333087652294327,0.010645856252291894,0.38065750493745887,0.0,0.0,0.0016996552472335398,0.007405537900581585,0.010318677706647468,0.0010845115681233932,0.01458320647871887,0.0027782336879485533,0.00023888637069181717,0.1712827508098107,0.007404985136172656,0.0038638415521936066,0.0014252425495113552,0.002827054490603501,0.5689584359435539,0.8324340535748637,0.0024570461192738673,0.42280240604033903,0.003758845411561291,0.010818197081586567,0.009307161266583047,0.9754175615435612,0.0037222466676448,0.6828944379165125,0.23656823607813196,0.03109681649265289,0.3726104540431235,0.6828649769511403,0.003804521157168446,0.04180991941693871,0.00016985162045523065
61,PPG,MRQ,2013-03-31,0.0016032608695652172,0.018049889895671637,0.010857888422953382,0.005075807364923714,0.0020322908434007,0.1690520896068776,0.24819798073088306,0.10444930969301079,0.3909417993196975,0.1314481494736582,0.061325132973356906,0.3025353742570091,0.5637167550229428,0.030969773395600104,0.013660192605251613,0.49630541277540485,0.42147025610523503,0.4613473665033972,0.49593301668731044,0.4969143313248907,0.4640309112748007,0.33706687265504304,0.36340830517642814,0.989715305943921,0.49562381653692406,0.2939042041581345,0.34003992967609287,0.37889251677731056,0.17688037615385827,0.7765792801464622,0.7750130393217675,0.9165797440659424,0.4887738084338267,0.47092466296590013,0.11140127388535032,0.453512087673021,0.32253506653650516,0.3962171415718731,0.9845512079366573,0.4460896893509005,0.7265662355656322,0.7265662355656322,0.5278242205973299,0.016334934264411585,0.5161271360330407,0.6168754347208322,0.0008845953863608604,0.00823310663673825,0.010771910524385772,0.38097638248847926,0.0,0.0,0.0027416818684689176,0.00652663668939492,0.009629983252203041,0.0010845115681233932,0.012607657282807987,0.002533534265379508,0.00019765837815976871,0.17082865136025047,0.007301135176662065,0.003697897902808969,0.0013635955537428747,0.002801561698089339,0.5689585521563171,0.8324097865045609,0.002431523323869425,0.42277922897343684,0.0037579919921409953,0.0108333609692917,0.008526293406398376,0.9754174679705212,0.0037214015577119656,0.682889355351414,0.23615738973466444,0.03098001409402213,0.3726104540431235,0.682864324853305,0.0025387046383335914,0.041896684489658685,0.0003397032409104613
62,PPG,MRQ,2012-12-31,0.0016032608695652172,0.018049889895671637,0.011656397597410884,0.005129248885118924,0.0019193857965451057,0.16854430155524852,0.24638021871917046,0.10310937238293494,0.39000883857547164,0.1303821994051659,0.06009023624462255,0.30258797538267324,0.563104201006816,0.030694452783272114,0.013660192605251613,0.48572600690171097,0.4118329066349445,0.452081168253127,0.4852876634839515,0.48628970243251923,0.4640309112748007,0.3365702935334363,0.3632384491359554,0.9896856233437566,0.4945402903429413,0.2871740826957838,0.3372400846270747,0.3774057518765286,0.17661304272617195,0.7777117188532171,0.7758228851158656,0.9164016587376294,0.4893642327777925,0.4735796986518636,0.11159235668789809,0.45572989844602174,0.32095218145672855,0.3868328869599264,0.9845179211086784,0.44735887827873805,0.7265509784083799,0.7265509784083799,0.5279570009822111,0.016209735153767935,0.5165586847673242,0.6168626189458724,0.001042995302589621,0.008545791595475001,0.010726072607260726,0.3803797728768927,0.0,0.0,0.0017840352949685383,0.006502406330189272,0.011300849911565372,0.02315633033419023,0.013010209259372019,0.002517121499231584,0.00038280494584970405,0.16953936507993042,0.007596020759365395,0.0038186279201873575,0.001487782980001118,0.0028936724483999425,0.5689618690622662,0.8323169259269247,0.0023393908030753534,0.4234580520327255,0.003758899311735204,0.011630977696306884,0.009249715026922236,0.9754181855789381,0.0037223000430089788,0.6830364703784233,0.2323966899371761,0.031397001258297176,0.37268099414517153,0.6829134745636053,0.007686829921639593,0.0418370335021637,0.00454353084717742
63,PPG,MRQ,2012-09-30,0.0016032608695652172,0.018049889895671637,0.01160605244993451,0.0043518832261091765,0.0022581009371118893,0.16929023826675013,0.24894943431078273,0.10465867489771014,0.3915846048085422,0.13191093532104997,0.061591483248181964,0.3025616748198412,0.5642513476188354,0.031028770669670386,0.013660192605251613,0.4862617341152055,0.4127552647685054,0.45297135262480176,0.48583382910867723,0.4868348047852199,0.4640309112748007,0.33651511807548,0.3634527290639364,0.9896858412776786,0.4958552493162213,0.2875009171374639,0.3375845525790399,0.37751057241653513,0.17692755264109702,0.777966517562237,0.776302893053427,0.916427099498817,0.48963120726375964,0.473126090404441,0.11382165605095541,0.45567551071589363,0.3218631802354764,0.38780754988899674,0.9845191717698453,0.44754019098271486,0.7265517300925587,0.7265517300925587,0.5279082542107753,0.016346669070979588,0.5165496275716664,0.6168632485229734,0.0010406544171281122,0.008668632114978727,0.011092775944261092,0.37998889071757735,0.0,0.0,0.0018992207569559964,0.007332846822964643,0.010796068180750991,0.0010845115681233932,0.012759882820164133,0.002651407767714597,0.0002649384150525594,0.16917964708459252,0.007576216813598258,0.003753212452603848,0.001446684982822131,0.002846053835967829,0.5689624888636698,0.8323009419460492,0.0023108863726937576,0.42332508885944437,0.003757273323155483,0.011580688816685078,0.007814034889031925,0.975417819030754,0.003720689886189579,0.6830076151063569,0.2321750917125499,0.03051392334582002,0.3726751158033342,0.6829065323185083,0.004377320810942878,0.04217324815895361,0.004501067942063612
64,PPG,MRQ,2012-06-30,0.0016032608695652172,0.018049889895671637,0.011575524337776233,0.0040213796402210735,0.0024839110308230777,0.16945359643839825,0.24910476270439327,0.10470054793865001,0.39171852261871815,0.13209604966000665,0.06169640911402213,0.302456472568513,0.564318171693322,0.031048436427693813,0.013660192605251613,0.48641617799657333,0.412863016886912,0.4530914240051672,0.4859459881208977,0.4869467454469352,0.4640309112748007,0.33701169719708673,0.3634422763845227,0.9896860156248161,0.4955922575215653,0.2877076899475064,0.3378193629130785,0.3777635875131025,0.17691182714535078,0.7777966517562238,0.7757746161612504,0.916427099498817,0.489346263341237,0.47259000793021416,0.11044585987261146,0.4550893318467354,0.3211991984791656,0.38790751531761936,0.9845192198721978,0.4456666263749547,0.7265518926188677,0.7265518926188677,0.5279017061370003,0.016364333922147787,0.5164373893823384,0.616863386512475,0.0009392160471293986,0.008822182764358382,0.01084066740007334,0.3790734035549704,0.0,0.0,0.0013969585680571961,0.007597178014298978,0.010639546713831802,0.0010845115681233932,0.012553532647303578,0.002648423628414974,0.0001652830220609822,0.16846733422253724,0.007496034984394733,0.003563459497003154,0.0013422807539637106,0.002670971260964907,0.5689636848866909,0.8322670686090944,0.0021744467561391713,0.42329362525501085,0.0037558180184598215,0.0115501948240291,0.007201635154309876,0.9754179016331617,0.003719248751356746,0.6829991531761663,0.2317739504008178,0.030162179847327122,0.3726692374614968,0.6829015117422536,0.0016264681526928302,0.03877856468878453,0.004578916601438926
65,PPG,MRQ,2012-03-31,0.0015489130434782608,0.018049889895671637,0.01155433403874919,0.003630233194536988,0.002709721124534267,0.16921741594926845,0.24878990785248,0.10706936568324839,0.38961601299895543,0.13179523885920202,0.0619466169479487,0.30248277313134503,0.5628814540918607,0.03098943915362353,0.013660192605251613,0.4847510799005768,0.4108071064677132,0.45111231642535077,0.48424409702242205,0.4852481675800375,0.4640309112748007,0.33723239902891194,0.36344750272422954,0.9896817005331622,0.4956869345676415,0.2873408349619471,0.33790041419589384,0.3779141917372498,0.17699045462408203,0.7772021214351774,0.7756016524072129,0.9165034217823796,0.4891913839118779,0.4712006344171293,0.11044585987261146,0.4537930909453494,0.32017555993818647,0.3859415285547082,0.9845128703616585,0.4476610661186994,0.7265495664610708,0.7265495664610708,0.5304030703190368,0.016338442178118747,0.5161871621532826,0.616861437410765,0.0009511805728215546,0.008746803354662915,0.01108131646497983,0.380513495720869,0.0,0.0,0.001344723300411721,0.007434173779642805,0.010897807134248464,0.0010845115681233932,0.013060951105157401,0.002730487459154593,0.00012304329965084668,0.16816816282047403,0.007538541014333952,0.003567547963727123,0.0013370477791676283,0.0026389850213009115,0.5689647404859564,0.832253016466967,0.002152382657308229,0.4232463036574337,0.003754299830227927,0.011529028208171612,0.006489292575418722,0.975417742236328,0.003717745345265704,0.6829868252523104,0.23133237145685465,0.029602170749301483,0.3726574807778222,0.6828931037197213,0.00039600963717738476,0.03765604156046983,0.004734613920189554
66,PPG,MRQ,2011-12-31,0.0015489130434782608,0.018049889895671637,0.011737886830244184,0.0031636621919816496,0.0030484362651010503,0.16729254496286064,0.24639701097793917,0.1038032684899385,0.3895088787508147,0.12940726388666066,0.06087314462819923,0.30248277313134503,0.5623357241502205,0.03093044187955325,0.013660192605251613,0.48565843770361256,0.4114708595170981,0.4517499368590155,0.4852340222172374,0.48623616559430755,0.4640309112748007,0.3364047671595674,0.3635572558580735,0.9896868001869349,0.49561329686513783,0.28780107121655785,0.33794809142107934,0.3780045542717382,0.17644006227296316,0.7755789592888286,0.7758215443115707,0.9165034217823796,0.4891485995391267,0.4732973830293418,0.11261146496815286,0.4557691784733364,0.3214304064121667,0.3864371904716286,0.9845178730063259,0.44669406503082315,0.726550917461014,0.726550917461014,0.5279580923278403,0.016121995550211463,0.5165638349374042,0.6168625671998093,0.0009576830324368567,0.008364322646208136,0.011195911257792445,0.37900139894667545,0.0,0.0,0.0019862795363651217,0.006539853248961637,0.010647372787177763,0.010584029562982005,0.012803859086511464,0.0023977559272466836,0.0001053380267843228,0.16808980840564794,0.007446283608443146,0.003458842848478056,0.001340366250989534,0.0025485577572884133,0.5689643966898653,0.8322447598410844,0.0020461171867224453,0.42303388226386524,0.0037530062260540055,0.011712375853345761,0.005745163948317644,0.9754174492559132,0.0037164643365254083,0.6829438036817779,0.23145368435354782,0.02919187955680401,0.37263396741047283,0.6828783882375954,0.00017679001659704676,0.0363003372992202,0.000764332292048538
67,PPG,MRQ,2011-09-30,0.0015489130434782608,0.018049889895671637,0.01197324256485056,0.0026773822599926167,0.0036129614993790225,0.170018461441567,0.24924749690392728,0.10482616706146962,0.3917765536697944,0.1325912305167158,0.061809406200311556,0.30248277313134503,0.5645631932997728,0.030950107637576676,0.013660192605251613,0.48615555394676513,0.4127423345142966,0.45297135262480176,0.48569728770249576,0.48669852919704476,0.4640309112748007,0.3368461708232178,0.363376947138187,0.9896850567155596,0.4952240690090469,0.2876076385878084,0.3383175899162669,0.37824552103037384,0.17711625859005206,0.7753241605798087,0.7757974098342632,0.916427099498817,0.48919395097424295,0.47287232355273595,0.11044585987261146,0.4552524950371197,0.3217525166094246,0.3878450369247302,0.984518305927499,0.4427051855433337,0.7265514964609896,0.7265514964609896,0.5279158936301794,0.01639085207933882,0.5164606539437339,0.6168630587874087,0.0009602840162829775,0.008668632114978727,0.011356343967730106,0.38245762014483214,0.0,0.0,0.0017773384657832209,0.007108165310330458,0.010443894880182818,0.0010845115681233932,0.013098161792066682,0.002591724981722147,0.00011166133852236705,0.16882527143572001,0.0073740716598532235,0.003497563033334472,0.0013600218148577454,0.0025663546124398092,0.5689621644363726,0.8322739755942078,0.0020198787989234865,0.42296573916335417,0.003750984969532253,0.011947468544483005,0.004959652860939236,0.975416849743126,0.003714462760368696,0.682930232151568,0.23124502617123557,0.02880673298635431,0.3726222107267982,0.6828709958718687,0.0002616492245636292,0.037634350292289835,0.0007218693869347303
68,PPG,MRQ,2011-06-30,0.0015489130434782608,0.018049889895671637,0.01202141755277183,0.003440345239800819,0.002709721124534267,0.17014442436910288,0.2495539556264562,0.1049936592252291,0.39197743038505833,0.1328025693870247,0.061995044270644166,0.30258797538267324,0.5646522920657548,0.03098943915362353,0.013660192605251613,0.4863003450855475,0.4129190479884835,0.45312454714457834,0.4858387055874694,0.4868396717705119,0.4640309112748007,0.33690134628117413,0.36339001298745416,0.9896852310626971,0.49544498211655796,0.2878744422136697,0.33855716797282404,0.3784732346172845,0.17716343507729082,0.7768812638015968,0.7752905858108045,0.9164525402600046,0.4889381004251911,0.4725011895321174,0.11044585987261146,0.4549624271431032,0.32148969049755155,0.388028306877205,0.9845185945416144,0.4476610661186994,0.7265516691451929,0.7265516691451929,0.5279075266470225,0.016406888256285838,0.5164057779935719,0.6168631967769103,0.0009686071645905643,0.0089310641339185,0.011574074074074073,0.3863767281105991,0.0,0.0,0.0013500807637599748,0.007674274611771493,0.010796068180750991,0.0010845115681233932,0.014041960123674792,0.002717058832306292,0.00017008873898189585,0.16952333804053418,0.007456668604394206,0.003671683616167048,0.001444515212784731,0.0026733762413907714,0.5689612105232749,0.8323055466027914,0.002095671960042752,0.42312415084022126,0.0037531858933003833,0.011995589690011311,0.006398501655375491,0.975417174344775,0.003716642254406005,0.6829627191146533,0.23088755750231302,0.02983800858870112,0.3726398457523102,0.682882854819229,0.001859830974600932,0.0392557725887444,0.0007855637446054418
69,PPG,MRQ,2011-03-31,0.0014945652173913044,0.018049889895671637,0.012206673677780597,0.0036078711399872196,0.002596816077678672,0.16957365485370587,0.24886967108163136,0.10485607637642667,0.39135248060423716,0.1321037627574632,0.061736765216268356,0.3025353742570091,0.5642513476188354,0.030851778847459536,0.013660192605251613,0.4857549651294674,0.4122725352780436,0.452511769065472,0.4852925399627437,0.4862945694178112,0.4640309112748007,0.3368461708232178,0.36340046566686784,0.9896843593270095,0.49571849358300024,0.2875676180439292,0.3380625167615245,0.37803467511656763,0.1771319840857983,0.7752769756336939,0.7758041138557374,0.9164525402600046,0.4891563007262219,0.4707121332275972,0.11044585987261146,0.45333683832038607,0.3200451349503397,0.3873951924959285,0.9845175362898578,0.4472380031427535,0.7265509276189083,0.7265509276189083,0.5279519080359417,0.016339987330584997,0.5161054698002906,0.6168625758241532,0.001063543074973976,0.008501122315655465,0.01153969563623029,0.3853069453587887,0.0,0.0,0.00110095871806617,0.0071918701875863305,0.01054954687035327,0.0010845115681233932,0.013859289478847415,0.002618582235418749,0.00028972579706569286,0.1690104727798544,0.007487823592247383,0.0036322419371828734,0.0015228822011943521,0.002646921456706264,0.5689623823353036,0.8322766748757464,0.0020434933479425497,0.42320693208824955,0.003754138129706187,0.01218063876498205,0.006813463158726904,0.9754175086263938,0.0037175852191731673,0.6829801836734494,0.2304815636747132,0.029938440635003147,0.3726457240941475,0.6828863230563887,0.004151029589698658,0.03841523594676963,0.0006794064818209226
70,PPG,MRQ,2010-12-31,0.0014945652173913044,0.018049889895671637,0.012391406039326612,0.003185645228657693,0.0029355312182454555,0.1694929598532532,0.24839528977141537,0.10354006651831646,0.3918301207938648,0.1318661993558021,0.061502699823240276,0.30250907369417707,0.5639283645921503,0.030871444605482964,0.013660192605251613,0.4856053476193924,0.4120441007870215,0.4522964686592995,0.48518038095052324,0.48618262875609586,0.4640309112748007,0.3364047671595674,0.36336126811906644,0.989684184979872,0.49471912476330737,0.28752759750005,0.33716618492803724,0.3772226171399655,0.17714770958154458,0.7753902195043694,0.7770617882843202,0.916427099498817,0.48996321399630854,0.47314829500396516,0.11044585987261146,0.45537033511906383,0.32193432113793824,0.3871786007339129,0.9845171033686847,0.4470566904387767,0.7265507650925993,0.7265507650925993,0.5279700971297611,0.016313427412516495,0.5164737957570413,0.6168624378346516,0.0010588613040509584,0.008381073626140463,0.011436560322698935,0.3830027978933509,0.0,0.0,0.0018309130992657597,0.006425309732716758,0.010510416503623473,0.010142191516709512,0.013487182609754612,0.002347025559153101,0.00030136069066369423,0.1687825326639967,0.007496034984394733,0.0036014581877318102,0.0014645536772477776,0.002642592491939708,0.5689629295037302,0.8322616435824728,0.0020097412400011615,0.4232865164994637,0.0037533745439090804,0.012365164661870116,0.006107198932569717,0.9754173195443199,0.0037168290681806318,0.6829983060819832,0.23025673043950853,0.029362779276678533,0.3726457240941475,0.6828838877883664,0.004504609622892752,0.038274242703599665,0.00019816022386443576
71,PPG,MRQ,2010-09-30,0.0014945652173913044,0.018049889895671637,0.01255336700514576,0.002758492084969743,0.0033871514056678332,0.16953625960959368,0.2486429755882538,0.10444332783001938,0.3914194395093252,0.13199115153459787,0.061268634430212195,0.30235127031718484,0.564273622310331,0.030733784299318972,0.013660192605251613,0.48591423538212797,0.4123975277353953,0.4526608231928222,0.4854583402416783,0.4864600469177382,0.4640309112748007,0.3367909953652615,0.36338217347789387,0.9896848387816377,0.49560277719335155,0.28763431895039454,0.33811019398671,0.37797443342690873,0.17711625859005206,0.7762489855236586,0.775818862702981,0.916427099498817,0.48927181853265,0.4722569389373513,0.11044585987261146,0.4547750916282176,0.3214106450503717,0.38751181882932156,0.9845180654157362,0.4489906926145292,0.7265511003031115,0.7265511003031115,0.5279369929790099,0.016318062869915245,0.5163645766329324,0.6168627310623425,0.0008154092160540453,0.00798463376774208,0.011700128346167949,0.38435031270572745,0.0,0.0,0.0012804337402326745,0.006821806519718261,0.010252156083206813,0.0010845115681233932,0.013605580249920503,0.002444010086390833,0.00013670165300502224,0.1692027972526093,0.007224576020464722,0.003395832361320411,0.0012969708502415353,0.0024285492340377843,0.568960619775062,0.8322767542663799,0.0018230908904312952,0.4232464298483606,0.003752413324140958,0.012526944613301045,0.005357498530709084,0.9754168910443299,0.0037158772075194394,0.6829911688629087,0.23007071733124568,0.02892752016599622,0.3726398457523102,0.682873165684135,0.0,0.03419086146871577,0.0004883234088087882
72,PPG,MRQ,2010-06-30,0.0014673913043478262,0.018049889895671637,0.01264285894839675,0.0022888889394246056,0.0040645816868014,0.16947327814582572,0.2487689175290191,0.10440743665207092,0.3915801408815363,0.13198806629561524,0.06131706175290766,0.30235127031718484,0.5644629571880428,0.030733784299318972,0.013660192605251613,0.48595767272376267,0.4125139000232745,0.45277261378833483,0.4855071050296002,0.4865087167706579,0.4640309112748007,0.3367358199073052,0.36340569200657474,0.9896849695419909,0.49578161161371764,0.2876209787691015,0.3380517893858578,0.37797443342690873,0.17710053309430582,0.7768152048770361,0.7757424368581737,0.916427099498817,0.4892435808466343,0.4725424266455195,0.11044585987261146,0.4550983964684234,0.3213098621052174,0.38762011471032937,0.9845184021322041,0.4454248761029856,0.7265511510925831,0.7265511510925831,0.5279308086871113,0.016314721999717948,0.5164206957275965,0.6168627741840617,0.0008000634113619322,0.007604944889276022,0.011528236156949027,0.3810278143515471,0.0,0.0,0.0010848863280214084,0.006431918012500116,0.009911721892657578,0.0010845115681233932,0.012732820502411929,0.002299279330359141,0.00013391939584028278,0.16844774561883072,0.007154296164144763,0.003214496837210242,0.0012639137655540893,0.0023092622049149143,0.5689617480073046,0.8322408167729545,0.0017212978723112435,0.42322737501840285,0.0037511826035032687,0.012616336536591818,0.004477226605681821,0.9754167677860497,0.0037146584700373524,0.6829878615909386,0.22979412392678525,0.028438242116192506,0.3726398457523102,0.6828722827552075,0.0,0.03191870112686138,0.0004175519002857754
73,PPG,MRQ,2010-03-31,0.0014673913043478262,0.018049889895671637,0.012607154548071672,0.0024780188584133255,0.003725866546234617,0.16921347960778294,0.24792930459058374,0.10434761802215682,0.39073199475042186,0.13147591662450173,0.061171779784821266,0.30232496975435275,0.5648639016349623,0.03071411854129554,0.013660192605251613,0.4847896908709187,0.41162171248286744,0.45191969294849765,0.4843269971618893,0.48533090633000103,0.4640309112748007,0.3367358199073052,0.3633482022697993,0.9896819620538685,0.49581317062907637,0.28752759750005,0.3380053040913019,0.37797443342690873,0.17719488606878334,0.7777872147670009,0.7756016524072129,0.916427099498817,0.48926582872046487,0.471035685963521,0.11044585987261146,0.45367222932284257,0.32039491105411055,0.3867829042456151,0.9845161413216333,0.4469358153027922,0.726549668040014,0.726549668040014,0.5289024700789408,0.016274172187698274,0.5161686925778235,0.6168615236542035,0.0008226919708231837,0.007496063519715903,0.011734506784011734,0.38359940750493743,0.0,0.0,0.000957646573500379,0.006493595290478128,0.010408677550126,0.0010845115681233932,0.013632642567672708,0.002385819370048194,0.00012835488151080384,0.16870061668486033,0.007212258932243698,0.00330829107381895,0.0012972261173047589,0.002339083962195632,0.568961534950572,0.8322529370763336,0.0017484307506033488,0.4234811870359855,0.003751946189300375,0.012580672041006434,0.00483344427758041,0.9754168374818312,0.0037154146210298883,0.683042625328711,0.22949973796414314,0.028605853097099763,0.37265160243598483,0.6828806907777398,0.0,0.03211392254048133,0.0007926408954577431
