None,ticker,dimension,calendardate,datekey,reportperiod,lastupdated,accoci,assets,assetsavg,assetsc,assetsnc,assetturnover,bvps,capex,cashneq,cashnequsd,cor,consolinc,currentratio,de,debt,debtc,debtnc,debtusd,deferredrev,depamor,deposits,divyield,dps,ebit,ebitda,ebitdamargin,ebitdausd,ebitusd,ebt,eps,epsdil,epsusd,equity,equityavg,equityusd,ev,evebit,evebitda,fcf,fcfps,fxusd,gp,grossmargin,intangibles,intexp,invcap,invcapavg,inventory,investments,investmentsc,investmentsnc,liabilities,liabilitiesc,liabilitiesnc,marketcap,ncf,ncfbus,ncfcommon,ncfdebt,ncfdiv,ncff,ncfi,ncfinv,ncfo,ncfx,netinc,netinccmn,netinccmnusd,netincdis,netincnci,netmargin,opex,opinc,payables,payoutratio,pb,pe,pe1,ppnenet,prefdivis,price,ps,ps1,receivables,retearn,revenue,revenueusd,rnd,roa,roe,roic,ros,sbcomp,sgna,sharefactor,sharesbas,shareswa,shareswadil,sps,tangibles,taxassets,taxexp,taxliabilities,tbvps,workingcapital
0,PPG,ARY,2020-12-31,2021-02-18,2020-12-31,2021-10-21,-2599000000,19556000000,18522500000.0,6798000000,12758000000,0.747,24.026,-304000000.0,1826000000,1826000000,7777000000.0,1074000000.0,1.407,2.415,6606000000,758000000,5848000000,6606000000,0,509000000.0,0,0.019,2.13,1488000000.0,1997000000.0,0.144,1997000000.0,1488000000.0,1350000000.0,4.47,4.45,4.47,5689000000,5138500000.0,5689000000,37051953048,25.0,18.554,1826000000.0,7.712,1.0,6057000000.0,0.438,7453000000,138000000.0,12052000000,11788250000.0,1735000000,363000000,96000000,267000000,13741000000,4831000000,8910000000,32271953048,610000000.0,-1169000000.0,54000000.0,439000000.0,-496000000.0,-59000000.0,-1447000000.0,0.0,2130000000.0,6000000.0,1059000000.0,1059000000.0,1059000000.0,0.0,15000000.0,0.077,4648000000.0,1409000000.0,3792000000,0.591,5.673,30.474,30.49,3974000000,0.0,136.29,2.333,2.333,2726000000,19469000000,13834000000.0,13834000000.0,379000000.0,0.057,0.206,0.126,0.108,44000000.0,3389000000.0,1.0,236788855,236788855,,58.423,12103000000,379000000,291000000.0,435000000,51.113,1967000000
1,PPG,ARY,2019-12-31,2020-02-20,2019-12-31,2021-10-21,-2350000000,17708000000,17774500000.0,6170000000,11538000000,0.852,22.413,-413000000.0,1216000000,1216000000,8653000000.0,1269000000.0,1.41,2.329,5844000000,683000000,5161000000,5844000000,0,511000000.0,0,0.021,2.01,1767000000.0,2278000000.0,0.15,2278000000.0,1767000000.0,1635000000.0,5.25,5.22,5.25,5284000000,5128500000.0,5284000000,32767827566,19.0,14.384,1667000000.0,7.071,1.0,6493000000.0,0.429,6601000000,132000000.0,11360000000,11822500000.0,1710000000,315000000,57000000,258000000,12305000000,4375000000,7930000000,28139827566,314000000.0,-643000000.0,-264000000.0,41000000.0,-468000000.0,-758000000.0,-1009000000.0,0.0,2080000000.0,1000000.0,1243000000.0,1243000000.0,1243000000.0,0.0,26000000.0,0.082,4821000000.0,1672000000.0,3496000000,0.474,5.325,22.639,22.735,3765000000,0.0,119.36,1.858,1.858,2756000000,18906000000,15146000000.0,15146000000.0,432000000.0,0.07,0.242,0.149,0.117,39000000.0,3604000000.0,1.0,235755928,235755928,,64.244,11107000000,220000000,392000000.0,452000000,47.112,1795000000
2,PPG,ARY,2018-12-31,2019-02-21,2018-12-31,2021-10-21,-2300000000,16015000000,16767750000.0,5961000000,10054000000,0.917,19.627,-384000000.0,902000000,902000000,9001000000.0,1358000000.0,1.363,2.437,5016000000,651000000,4365000000,5016000000,0,497000000.0,0,0.017,1.89,1812000000.0,2309000000.0,0.15,2309000000.0,1812000000.0,1694000000.0,5.5,5.47,5.5,4630000000,4960000000.0,4630000000,30093552134,17.0,13.033,1083000000.0,4.591,1.0,6373000000.0,0.415,6042000000,118000000.0,9714000000,10634000000.0,1783000000,312000000,61000000,251000000,11283000000,4373000000,6910000000,25979552134,-534000000.0,-378000000.0,-1706000000.0,983000000.0,-453000000.0,-1205000000.0,-764000000.0,0.0,1467000000.0,-32000000.0,1341000000.0,1341000000.0,1341000000.0,0.0,17000000.0,0.087,4699000000.0,1674000000.0,3623000000,0.344,5.611,19.373,20.024,2805000000,0.0,110.13,1.69,1.69,2845000000,18131000000,15374000000.0,15374000000.0,441000000.0,0.08,0.27,0.17,0.118,37000000.0,3573000000.0,1.0,235898957,235898957,,65.172,9973000000,229000000,353000000.0,429000000,42.277,1588000000
3,PPG,ARY,2017-12-31,2018-02-15,2017-12-31,2021-10-21,-2057000000,16538000000,16821000000.0,6477000000,10061000000,0.877,22.243,-360000000.0,1436000000,1436000000,8204000000.0,1612000000.0,1.663,1.955,4146000000,12000000,4134000000,4146000000,0,460000000.0,0,0.015,1.75,2312000000.0,2772000000.0,0.188,2772000000.0,2312000000.0,2207000000.0,6.21,6.17,6.21,5558000000,5570500000.0,5558000000,31743628424,14.0,11.452,1208000000.0,4.834,1.0,6546000000.0,0.444,5987000000,105000000.0,9367000000,9394000000.0,1730000000,323000000,55000000,268000000,10865000000,3894000000,6971000000,29033628424,-384000000.0,268000000.0,-761000000.0,-688000000.0,-434000000.0,-1954000000.0,-67000000.0,-1000000.0,1568000000.0,69000000.0,1591000000.0,1591000000.0,1591000000.0,0.0,21000000.0,0.108,4607000000.0,1939000000.0,3780000000,0.282,5.224,18.249,18.71,2824000000,0.0,116.19,1.968,1.968,2903000000,17141000000,14750000000.0,14750000000.0,453000000.0,0.095,0.286,0.246,0.157,42000000.0,3570000000.0,1.0,249880613,249880613,,59.028,10551000000,305000000,616000000.0,442000000,42.224,2583000000
4,PPG,ARY,2016-12-31,2017-02-16,2016-12-31,2021-10-21,-2356000000,15769000000,16705500000.0,6452000000,9317000000,0.883,18.771,-402000000.0,1820000000,1820000000,8063000000.0,899000000.0,1.522,2.249,4416000000,629000000,3787000000,4416000000,0,462000000.0,0,0.016,1.6,1243000000.0,1705000000.0,0.116,1705000000.0,1243000000.0,1118000000.0,3.3,3.28,3.3,4826000000,5091000000.0,4826000000,28760507265,23.0,16.868,923000000.0,3.59,1.0,6688000000.0,0.453,5555000000,125000000.0,8570000000,9801750000.0,1546000000,222000000,43000000,179000000,10856000000,4240000000,6616000000,26164507265,509000000.0,745000000.0,-1019000000.0,233000000.0,-414000000.0,-1184000000.0,436000000.0,92000000.0,1325000000.0,-68000000.0,877000000.0,877000000.0,877000000.0,0.0,22000000.0,0.059,5938000000.0,750000000.0,3510000000,0.485,5.422,29.834,30.839,2759000000,0.0,101.77,1.774,1.774,2692000000,15984000000,14751000000.0,14751000000.0,466000000.0,0.052,0.172,0.127,0.084,39000000.0,3662000000.0,1.0,257094500,257094500,,57.376,10214000000,154000000,241000000.0,417000000,39.729,2212000000
5,PPG,ARY,2015-12-31,2016-02-18,2015-12-31,2021-10-21,-2702000000,17076000000,17403500000.0,6554000000,10522000000,0.881,18.679,-476000000.0,1311000000,1311000000,8591000000.0,1427000000.0,1.408,2.41,4325000000,283000000,4042000000,4325000000,0,495000000.0,0,0.015,1.44,1988000000.0,2483000000.0,0.162,2483000000.0,1988000000.0,1862000000.0,5.18,5.14,5.18,4983000000,5085750000.0,4983000000,28274037694,14.0,11.387,1361000000.0,5.102,1.0,6739000000.0,0.44,5847000000,126000000.0,9587000000,10361250000.0,1705000000,511000000,144000000,367000000,12007000000,4656000000,7351000000,25260037694,625000000.0,-273000000.0,-698000000.0,342000000.0,-383000000.0,-754000000.0,-395000000.0,324000000.0,1837000000.0,-63000000.0,1406000000.0,1406000000.0,1406000000.0,0.0,21000000.0,0.092,4916000000.0,1823000000.0,3490000000,0.278,5.069,17.966,18.28,3017000000,0.0,94.69,1.648,1.648,2788000000,15521000000,15330000000.0,15330000000.0,486000000.0,0.081,0.276,0.192,0.13,56000000.0,3679000000.0,1.0,266765632,266765632,,57.466,11229000000,672000000,456000000.0,460000000,42.093,1898000000
6,PPG,ARY,2014-12-31,2015-02-19,2014-12-31,2021-10-21,-2116000000,17583000000,17271750000.0,6850000000,10733000000,0.889,19.037,-587000000.0,686000000,686000000,8791000000.0,2159000000.0,1.405,2.378,4025000000,481000000,3544000000,4025000000,0,476000000.0,0,0.011,1.34,2548000000.0,3024000000.0,0.197,3024000000.0,2548000000.0,2361000000.0,7.6,7.515,7.6,5180000000,5881250000.0,5180000000,35378820452,14.0,11.699,941000000.0,3.458,1.0,6569000000.0,0.428,6212000000,187000000.0,9834000000,9318750000.0,1825000000,940000000,497000000,443000000,12318000000,4876000000,7442000000,32039820452,-430000000.0,-488000000.0,-693000000.0,381000000.0,-361000000.0,-969000000.0,-857000000.0,143000000.0,1528000000.0,-132000000.0,2102000000.0,2102000000.0,2102000000.0,0.0,57000000.0,0.137,4959000000.0,1610000000.0,3548000000,0.176,6.185,15.243,15.493,3092000000,0.0,117.75,2.086,2.086,2815000000,14498000000,15360000000.0,15360000000.0,492000000.0,0.122,0.357,0.273,0.166,73000000.0,3758000000.0,1.0,272100386,272100386,,56.45,11371000000,911000000,259000000.0,702000000,41.79,1974000000
7,PPG,ARY,2013-12-31,2014-02-20,2013-12-31,2021-10-21,-1260000000,15863000000,15985750000.0,7214000000,8649000000,0.945,17.804,-515000000.0,1116000000,1116000000,8636000000.0,3353000000.0,1.745,2.162,3406000000,34000000,3372000000,3406000000,0,475000000.0,0,0.013,1.22,3760000000.0,4235000000.0,0.28,4235000000.0,3760000000.0,3564000000.0,11.265,11.135,11.265,4932000000,4993000000.0,4932000000,28434014859,8.0,6.714,1276000000.0,4.606,1.0,6472000000.0,0.428,4347000000,196000000.0,9671000000,9618250000.0,1824000000,1022000000,629000000,393000000,10665000000,4135000000,6530000000,26144014859,-190000000.0,-43000000.0,-932000000.0,-612000000.0,-345000000.0,-1979000000.0,3000000.0,569000000.0,1791000000.0,-5000000.0,3231000000.0,3231000000.0,3231000000.0,0.0,122000000.0,0.214,4961000000.0,1511000000.0,3265000000,0.108,5.301,8.092,8.378,2876000000,0.0,94.375,1.73,1.73,2736000000,12757000000,15108000000.0,15108000000.0,488000000.0,0.202,0.647,0.391,0.249,81000000.0,3699000000.0,1.0,277022674,277022674,,54.537,11516000000,916000000,333000000.0,249000000,41.571,3079000000
8,PPG,ARY,2012-12-31,2013-02-21,2012-12-31,2021-10-21,-1666000000,15878000000,15283750000.0,7715000000,8163000000,0.995,14.222,-411000000.0,1306000000,1306000000,9069000000.0,1064000000.0,1.729,2.844,4010000000,642000000,3368000000,4010000000,0,465000000.0,0,0.018,1.18,1489000000.0,1954000000.0,0.129,1954000000.0,1489000000.0,1279000000.0,3.065,3.03,3.065,4063000000,3669500000.0,4063000000,21285427062,14.0,10.893,1376000000.0,4.816,1.0,6131000000.0,0.403,3846000000,210000000.0,10275000000,9614250000.0,1687000000,1509000000,1087000000,422000000,11556000000,4461000000,7095000000,18581427062,-151000000.0,-122000000.0,30000000.0,193000000.0,-358000000.0,-351000000.0,-1611000000.0,-1082000000.0,1787000000.0,24000000.0,941000000.0,941000000.0,941000000.0,0.0,123000000.0,0.062,4558000000.0,1573000000.0,3061000000,0.385,4.573,19.746,21.22,2888000000,0.0,65.04,1.222,1.222,2813000000,9871000000,15200000000.0,15200000000.0,455000000.0,0.062,0.256,0.155,0.098,0.0,3335000000.0,1.0,285692298,285692298,,53.204,12032000000,430000000,338000000.0,231000000,42.115,3254000000
9,PPG,ARY,2011-12-31,2012-02-16,2011-12-31,2021-10-21,-1800000000,14382000000,14823750000.0,6694000000,7688000000,1.004,10.687,-390000000.0,1457000000,1457000000,9081000000.0,1212000000.0,1.808,3.366,3682000000,108000000,3574000000,3682000000,0,467000000.0,0,0.025,1.14,1690000000.0,2157000000.0,0.145,2157000000.0,1690000000.0,1480000000.0,3.48,3.435,3.48,3249000000,3682750000.0,3249000000,16118508076,10.0,7.473,1046000000.0,3.441,1.0,5804000000.0,0.39,3785000000,210000000.0,9120000000,9720000000.0,1607000000,412000000,25000000,387000000,10936000000,3702000000,7234000000,13893508076,116000000.0,22000000.0,-777000000.0,-391000000.0,-355000000.0,-1632000000.0,353000000.0,714000000.0,1436000000.0,-41000000.0,1095000000.0,1095000000.0,1095000000.0,0.0,117000000.0,0.074,4039000000.0,1765000000.0,2996000000,0.328,4.276,12.688,13.132,2721000000,0.0,45.7,0.933,0.933,2830000000,9288000000,14885000000.0,14885000000.0,430000000.0,0.074,0.297,0.174,0.114,0.0,3234000000.0,1.0,304015494,304015494,,48.961,10597000000,473000000,385000000.0,272000000,34.857,2992000000
10,PPG,ARY,2010-12-31,2011-02-17,2010-12-31,2021-10-21,-1411000000,14975000000,14054250000.0,7058000000,7917000000,0.955,11.327,-307000000.0,1341000000,1341000000,8214000000.0,880000000.0,1.947,3.063,4071000000,28000000,4043000000,4071000000,0,470000000.0,0,0.024,1.095,1373000000.0,1843000000.0,0.137,1843000000.0,1373000000.0,1184000000.0,2.335,2.315,2.335,3638000000,3638500000.0,3638000000,17094698573,12.0,9.275,1003000000.0,3.123,1.0,5209000000.0,0.388,3987000000,189000000.0,10093000000,9044000000.0,1573000000,1187000000,637000000,550000000,11142000000,3625000000,7517000000,14364698573,284000000.0,-34000000.0,-440000000.0,736000000.0,-360000000.0,-104000000.0,-949000000.0,-624000000.0,1310000000.0,27000000.0,769000000.0,769000000.0,769000000.0,0.0,111000000.0,0.057,3725000000.0,1484000000.0,3002000000,0.469,3.949,18.68,19.154,2686000000,0.0,44.725,1.07,1.07,2778000000,8548000000,13423000000.0,13423000000.0,394000000.0,0.055,0.211,0.152,0.102,0.0,2979000000.0,1.0,321178280,321178280,,41.793,10988000000,451000000,415000000.0,293000000,34.212,3433000000
11,PPG,ARY,2009-12-31,2010-02-18,2009-12-31,2021-10-21,-1261000000,14240000000,14244250000.0,5981000000,8259000000,0.859,11.314,-239000000.0,1057000000,1057000000,7539000000.0,426000000.0,1.672,2.749,3346000000,272000000,3074000000,3346000000,0,480000000.0,0,0.034,1.07,720000000.0,1200000000.0,0.098,1200000000.0,720000000.0,527000000.0,1.02,1.015,1.02,3753000000,3324000000.0,3753000000,12590402058,17.0,10.492,1106000000.0,3.334,1.0,4700000000.0,0.384,4200000000,193000000.0,8752000000,9083250000.0,1548000000,499000000,0,499000000,10318000000,3577000000,6741000000,10301402058,36000000.0,-26000000.0,-47000000.0,-646000000.0,-353000000.0,-1123000000.0,-203000000.0,0.0,1345000000.0,17000000.0,336000000.0,336000000.0,336000000.0,0.0,90000000.0,0.027,3890000000.0,810000000.0,2648000000,1.049,2.745,30.659,30.446,2754000000,0.0,31.055,0.842,0.842,2628000000,8139000000,12239000000.0,12239000000.0,388000000.0,0.024,0.101,0.079,0.059,0.0,2936000000.0,1.0,331714766,331714766,,36.896,10040000000,485000000,191000000.0,328000000,30.267,2404000000
12,PPG,ARY,2008-12-31,2009-02-19,2008-12-31,2021-10-21,-1628000000,14698000000,15462500000.0,6348000000,8350000000,1.025,10.147,-383000000.0,1045000000,1045000000,10155000000.0,538000000.0,1.508,3.363,3912000000,903000000,3009000000,3912000000,0,563000000.0,0,0.063,1.05,1076000000.0,1639000000.0,0.103,1639000000.0,1076000000.0,822000000.0,1.635,1.625,1.635,3333000000,4133750000.0,3333000000,8357322261,8.0,5.099,975000000.0,2.968,1.0,5694000000.0,0.359,4113000000,254000000.0,9242000000,10186250000.0,1702000000,509000000,0,509000000,11209000000,4210000000,6999000000,5490322261,495000000.0,-1448000000.0,6000000.0,-681000000.0,-343000000.0,-978000000.0,125000000.0,0.0,1358000000.0,-10000000.0,538000000.0,538000000.0,538000000.0,0.0,0.0,0.034,4532000000.0,1162000000.0,2816000000,0.642,1.647,10.205,10.223,2798000000,0.0,16.715,0.346,0.346,2804000000,8156000000,15849000000.0,15849000000.0,451000000.0,0.035,0.13,0.106,0.068,0.0,3432000000.0,1.0,328466782,328466782,,48.251,10585000000,515000000,284000000.0,425000000,32.225,2138000000
13,PPG,ARY,2007-12-31,2008-02-21,2007-12-31,2021-10-21,-582000000,12629000000,11141250000.0,7136000000,5493000000,1.006,12.669,-353000000.0,2232000000,2232000000,7087000000.0,834000000.0,1.531,2.01,3020000000,1819000000,1201000000,3020000000,0,380000000.0,0,0.032,1.03,1282000000.0,1662000000.0,0.148,1662000000.0,1282000000.0,1189000000.0,2.535,2.515,2.535,4151000000,3818750000.0,4151000000,11272605056,9.0,6.783,643000000.0,1.962,1.0,4119000000.0,0.368,2088000000,93000000.0,6668000000,6739750000.0,1368000000,360000000,0,360000000,8345000000,4661000000,3684000000,10484605056,83000000.0,-231000000.0,-80000000.0,1673000000.0,-335000000.0,1283000000.0,-2207000000.0,0.0,996000000.0,11000000.0,834000000.0,834000000.0,834000000.0,-19000000.0,0.0,0.074,2783000000.0,1336000000.0,2150000000,0.406,2.526,12.571,12.623,2426000000,0.0,32.0,0.936,0.936,2398000000,7963000000,11206000000.0,11206000000.0,339000000.0,0.075,0.218,0.19,0.114,0.0,2136000000.0,1.0,327643908,327643908,,34.202,10541000000,418000000,355000000.0,164000000,32.172,2475000000
14,PPG,ARY,2006-12-31,2007-02-21,2006-12-31,2021-10-21,-985000000,10021000000,9553500000.0,4592000000,5429000000,1.155,9.861,-372000000.0,455000000,455000000,7036000000.0,711000000.0,1.648,2.053,1295000000,140000000,1155000000,1295000000,0,380000000.0,0,0.028,0.97,1072000000.0,1452000000.0,0.132,1452000000.0,1072000000.0,989000000.0,2.145,2.135,2.145,3234000000,3352000000.0,3234000000,12034702417,11.0,8.288,758000000.0,2.311,1.0,4001000000.0,0.363,1982000000,83000000.0,6092000000,5974250000.0,1390000000,352000000,0,352000000,6639000000,2787000000,3852000000,11194702417,-11000000.0,-402000000.0,-98000000.0,-99000000.0,-316000000.0,-501000000.0,-662000000.0,0.0,1130000000.0,22000000.0,711000000.0,711000000.0,711000000.0,0.0,0.0,0.064,2858000000.0,1143000000.0,2090000000,0.452,3.462,15.745,15.914,2496000000,0.0,34.135,1.014,1.014,2168000000,7453000000,11037000000.0,11037000000.0,318000000.0,0.074,0.212,0.179,0.097,0.0,1980000000.0,1.0,327953784,327953784,,33.654,8039000000,394000000,278000000.0,136000000,24.513,1805000000
15,PPG,ARY,2005-12-31,2006-02-16,2005-12-31,2021-10-21,-819000000,8681000000,8821750000.0,4019000000,4662000000,1.156,9.233,-288000000.0,466000000,466000000,6473000000.0,596000000.0,1.711,1.808,1270000000,101000000,1169000000,1270000000,0,372000000.0,0,0.039,0.94,959000000.0,1331000000.0,0.13,1331000000.0,959000000.0,878000000.0,1.755,1.745,1.755,3053000000,3333250000.0,3053000000,10753739759,11.0,8.079,777000000.0,2.35,1.0,3728000000.0,0.365,1654000000,81000000.0,5482000000,5620500000.0,1119000000,311000000,0,311000000,5520000000,2349000000,3171000000,9949739759,-193000000.0,-91000000.0,-469000000.0,-82000000.0,-316000000.0,-857000000.0,-365000000.0,50000000.0,1065000000.0,-36000000.0,596000000.0,596000000.0,596000000.0,0.0,0.0,0.058,2700000000.0,1028000000.0,1776000000,0.664,3.259,16.694,17.145,2304000000,0.0,30.09,0.975,0.975,1871000000,7057000000,10201000000.0,10201000000.0,309000000.0,0.068,0.179,0.171,0.094,0.0,1771000000.0,1.0,330665994,330665994,,30.85,7027000000,345000000,282000000.0,90000000,21.251,1670000000
16,PPG,ARY,2004-12-31,2005-02-17,2004-12-31,2021-10-21,-435000000,8932000000,8696500000.0,4054000000,4878000000,1.094,10.373,-244000000.0,709000000,709000000,5999000000.0,683000000.0,1.825,1.474,1350000000,166000000,1184000000,1350000000,0,388000000.0,0,0.025,0.9,1095000000.0,1483000000.0,0.156,1483000000.0,1095000000.0,1005000000.0,1.99,1.975,1.99,3572000000,3214750000.0,3572000000,12920621633,12.0,8.712,774000000.0,2.248,1.0,3514000000.0,0.369,1713000000,90000000.0,5639000000,5683500000.0,1076000000,298000000,0,298000000,5264000000,2221000000,3043000000,12279621633,210000000.0,-67000000.0,21000000.0,-312000000.0,-307000000.0,-585000000.0,-260000000.0,0.0,1018000000.0,37000000.0,683000000.0,683000000.0,683000000.0,0.0,0.0,0.072,2361000000.0,1153000000.0,1651000000,0.452,3.438,17.979,17.92,2471000000,0.0,35.66,1.291,1.291,1797000000,6776000000,9513000000.0,9513000000.0,303000000.0,0.079,0.212,0.193,0.115,0.0,1715000000.0,1.0,344352822,344352822,,27.626,7219000000,306000000,322000000.0,145000000,20.964,1833000000
17,PPG,ARY,2003-12-31,2004-02-20,2003-12-31,2021-10-21,-642000000,8424000000,8276250000.0,3537000000,4887000000,1.058,8.5,-217000000.0,499000000,499000000,5521000000.0,494000000.0,1.654,1.847,1666000000,327000000,1339000000,1666000000,0,394000000.0,0,0.03,0.87,894000000.0,1288000000.0,0.147,1288000000.0,894000000.0,787000000.0,1.455,1.445,1.455,2911000000,2524750000.0,2911000000,11250806899,13.0,8.735,906000000.0,2.646,1.0,3235000000.0,0.369,1652000000,107000000.0,5800000000,6159250000.0,997000000,265000000,0,265000000,5376000000,2139000000,3237000000,10083806899,382000000.0,-3000000.0,61000000.0,-385000000.0,-294000000.0,-593000000.0,-166000000.0,0.0,1123000000.0,18000000.0,494000000.0,494000000.0,494000000.0,0.0,0.0,0.056,2285000000.0,950000000.0,1504000000,0.598,3.464,20.413,20.237,2566000000,0.0,29.445,1.152,1.152,1631000000,6399000000,8756000000.0,8756000000.0,290000000.0,0.06,0.196,0.145,0.102,0.0,1578000000.0,1.0,342462452,342462452,,25.568,6772000000,254000000,293000000.0,88000000,19.774,1398000000
18,PPG,ARY,2002-12-31,2003-02-21,2002-12-31,2021-10-21,-1101000000,7863000000,8421250000.0,2945000000,4918000000,0.958,6.342,-238000000.0,117000000,117000000,5066000000.0,-69000000.0,1.534,2.596,2051000000,352000000,1699000000,2051000000,0,398000000.0,0,0.035,0.845,52000000.0,450000000.0,0.056,450000000.0,52000000.0,-76000000.0,-0.205,-0.205,-0.205,2150000000,2671250000.0,2150000000,10055360308,193.0,22.345,634000000.0,1.87,1.0,3001000000.0,0.372,1561000000,128000000.0,6316000000,6933000000.0,942000000,262000000,0,262000000,5582000000,1920000000,3662000000,8121360308,9000000.0,-22000000.0,32000000.0,-423000000.0,-287000000.0,-655000000.0,-212000000.0,0.0,872000000.0,4000000.0,-69000000.0,-69000000.0,-69000000.0,0.0,0.0,-0.009,2901000000.0,100000000.0,1378000000,-4.122,3.777,-117.701,-116.854,2632000000,0.0,23.955,1.007,1.007,1486000000,6197000000,8067000000.0,8067000000.0,273000000.0,-0.008,-0.026,0.008,0.006,0.0,1419000000.0,1.0,339025686,339025686,,23.795,6302000000,219000000,-7000000.0,64000000,18.589,1025000000
19,PPG,ARY,2001-12-31,2002-02-22,2001-12-31,2021-10-21,-460000000,8452000000,8823250000.0,2703000000,5749000000,0.926,9.138,-291000000.0,108000000,108000000,5137000000.0,387000000.0,1.383,1.705,2395000000,696000000,1699000000,2395000000,0,447000000.0,0,0.033,0.84,803000000.0,1250000000.0,0.153,1250000000.0,803000000.0,634000000.0,1.15,1.145,1.15,3080000000,3064750000.0,3080000000,10781095708,13.0,8.625,769000000.0,2.281,1.0,3032000000.0,0.371,1542000000,169000000.0,7242000000,7495500000.0,904000000,305000000,0,305000000,5250000000,1955000000,3295000000,8494095708,-3000000.0,-10000000.0,8000000.0,-547000000.0,-283000000.0,-816000000.0,-245000000.0,0.0,1060000000.0,-2000000.0,387000000.0,387000000.0,387000000.0,0.0,0.0,0.047,2197000000.0,835000000.0,1259000000,0.73,2.758,21.949,21.913,2752000000,0.0,25.2,1.04,1.04,1416000000,6551000000,8169000000.0,8169000000.0,266000000.0,0.044,0.126,0.107,0.098,0.0,1395000000.0,1.0,337067290,337067290,,24.236,6910000000,155000000,247000000.0,552000000,20.5,748000000
20,PPG,ARY,2000-12-31,2001-02-16,2000-12-31,2021-10-21,-311000000,9125000000,9081750000.0,3093000000,6032000000,0.95,9.206,-561000000.0,111000000,111000000,5334000000.0,620000000.0,1.216,1.905,2971000000,1161000000,1810000000,2971000000,0,447000000.0,0,0.033,0.81,1166000000.0,1613000000.0,0.187,1613000000.0,1166000000.0,989000000.0,1.8,1.785,1.8,3097000000,3149750000.0,3097000000,11202708642,10.0,6.945,309000000.0,0.919,1.0,3295000000.0,0.382,1648000000,177000000.0,7794000000,7670750000.0,1121000000,320000000,0,320000000,5900000000,2543000000,3357000000,8342708642,-47000000.0,-115000000.0,-243000000.0,221000000.0,-276000000.0,-278000000.0,-636000000.0,0.0,870000000.0,-3000000.0,620000000.0,620000000.0,620000000.0,0.0,0.0,0.072,2101000000.0,1194000000.0,1382000000,0.45,2.694,13.456,13.778,2941000000,0.0,24.8,0.967,0.967,1563000000,6444000000,8629000000.0,8629000000.0,282000000.0,0.068,0.197,0.152,0.135,0.0,1364000000.0,1.0,336399542,336399542,,25.651,7477000000,155000000,369000000.0,543000000,22.227,550000000
21,PPG,ARY,1999-12-31,2000-02-18,1999-12-31,2021-10-21,-178000000,8914000000,8153000000.0,3062000000,5852000000,0.951,8.923,-338000000.0,158000000,158000000,4719000000.0,568000000.0,1.284,1.838,2790000000,954000000,1836000000,2790000000,0,419000000.0,0,0.03,0.77,1078000000.0,1497000000.0,0.193,1497000000.0,1078000000.0,945000000.0,1.635,1.615,1.635,3106000000,2959750000.0,3106000000,11518316761,11.0,7.694,564000000.0,1.62,1.0,3038000000.0,0.392,1662000000,133000000.0,7500000000,7197250000.0,1016000000,261000000,0,261000000,5710000000,2384000000,3326000000,8886316761,30000000.0,-1343000000.0,-73000000.0,1095000000.0,-264000000.0,773000000.0,-1644000000.0,0.0,902000000.0,-1000000.0,568000000.0,568000000.0,568000000.0,0.0,0.0,0.073,1932000000.0,1106000000.0,1430000000,0.471,2.861,15.645,15.615,2933000000,0.0,25.53,1.146,1.146,1594000000,6098000000,7757000000.0,7757000000.0,284000000.0,0.07,0.192,0.15,0.139,0.0,1230000000.0,1.0,348073512,348073512,,22.286,7252000000,165000000,377000000.0,520000000,20.835,678000000
22,PPG,ARY,1998-12-31,1999-02-19,1998-12-31,2021-10-21,-153000000,7387000000,7212500000.0,2660000000,4727000000,1.041,8.266,-487000000.0,128000000,128000000,4476000000.0,801000000.0,1.391,1.535,1718000000,637000000,1081000000,1718000000,0,383000000.0,0,0.029,0.73,1377000000.0,1760000000.0,0.234,1760000000.0,1377000000.0,1267000000.0,2.26,2.24,2.26,2880000000,2777750000.0,2880000000,10463737659,8.0,5.945,455000000.0,1.306,1.0,3034000000.0,0.404,576000000,110000000.0,6489000000,6820250000.0,917000000,263000000,0,263000000,4420000000,1912000000,2508000000,8873737659,-1000000.0,-112000000.0,-195000000.0,73000000.0,-252000000.0,-361000000.0,-581000000.0,0.0,942000000.0,-1000000.0,801000000.0,801000000.0,801000000.0,0.0,0.0,0.107,1630000000.0,1404000000.0,1264000000,0.323,3.081,11.078,11.27,2905000000,0.0,25.47,1.182,1.182,1366000000,5791000000,7510000000.0,7510000000.0,271000000.0,0.111,0.288,0.202,0.183,0.0,1133000000.0,1.0,348399594,348399594,,21.556,6811000000,146000000,466000000.0,451000000,19.549,748000000
23,PPG,ARY,1997-12-31,1998-02-24,1997-12-31,2021-10-21,-161000000,6868000000,6631300000.0,2584000000,4284000000,1.113,7.056,-466000000.0,129000000,129000000,4397000000.0,714000000.0,1.555,1.705,1701000000,444000000,1257000000,1701000000,0,373000000.0,0,0.021,0.67,1254000000.0,1627000000.0,0.22,1627000000.0,1254000000.0,1149000000.0,1.985,1.97,1.985,2509000000,2477200000.0,2509000000,12872994695,10.0,7.912,541000000.0,1.521,1.0,2982000000.0,0.404,0,105000000.0,6778000000,6437350000.0,863000000,219000000,0,219000000,4277000000,1662000000,2615000000,11300994695,59000000.0,-192000000.0,-329000000.0,197000000.0,-239000000.0,-360000000.0,-583000000.0,0.0,1007000000.0,-5000000.0,714000000.0,714000000.0,714000000.0,0.0,0.0,0.097,1702000000.0,1280000000.0,1210000000,0.338,4.504,15.828,16.01,2855000000,0.0,31.78,1.532,1.532,1353000000,5239000000,7379000000.0,7379000000.0,250000000.0,0.108,0.288,0.195,0.17,0.0,1068000000.0,1.0,355600840,355600840,,20.751,6868000000,118000000,435000000.0,414000000,19.314,922000000
24,PPG,ARY,1996-12-31,1997-02-20,1996-12-31,2021-10-21,-19600000,6441400000,,2296400000,4145000000,,6.61,-475900000.0,69600000,69600000,4340300000.0,744000000.0,1.298,1.564,1482200000,648300000,833900000,1482200000,0,362600000.0,0,0.023,0.645,1310600000.0,1673200000.0,0.232,1673200000.0,1310600000.0,1215000000.0,1.98,,1.98,2482600000,,2482600000,11437362385,9.0,6.836,532000000.0,1.416,1.0,2877800000.0,0.399,0,95600000.0,6085100000,,796500000,254400000,0,254400000,3882600000,1768900000,2113700000,10024762385,-36000000.0,-12600000.0,-608300000.0,261900000.0,-236600000.0,-575100000.0,-468400000.0,0.0,1007900000.0,-400000.0,744000000.0,744000000.0,744000000.0,0.0,0.0,0.103,1542600000.0,1335200000.0,1105500000,0.326,4.038,13.474,13.889,2913500000,0.0,27.5,1.389,1.431,1225600000,4759800000,7218100000.0,7218100000.0,239100000.0,,,,0.182,0.0,1004300000.0,1.0,364536814,375600000,,19.218,6441400000,116200000,471000000.0,434200000,17.15,527500000
0,PPG,ARQ,2021-09-30,2021-10-21,2021-09-30,2021-10-21,-2871000000,21883000000,,7300000000,14583000000,,26.339,-31000000.0,1216000000,1216000000,2733000000.0,345000000.0,1.336,2.474,7699000000,898000000,6801000000,7699000000,0,146000000.0,0,0.013,0.59,470000000.0,616000000.0,0.141,616000000.0,470000000.0,440000000.0,1.45,1.43,1.45,6253000000,,6253000000,45654140745,23.0,18.11,494000000.0,2.081,1.0,1639000000.0,0.375,9048000000,30000000.0,13855000000,,2249000000,360000000,88000000,272000000,15473000000,5463000000,10010000000,39171140745,21000000.0,-11000000.0,2000000.0,-308000000.0,-140000000.0,-448000000.0,-34000000.0,0.0,525000000.0,-22000000.0,344000000.0,344000000.0,344000000.0,0.0,1000000.0,0.079,1231000000.0,408000000.0,4378000000,0.407,6.264,27.489,27.546,4256000000,0.0,165.0,2.393,2.393,3382000000,20226000000,4372000000.0,4372000000.0,114000000.0,,,,,4000000.0,950000000.0,1.0,237400853,237400853,,18.416,12835000000,311000000,96000000.0,642000000,54.065,1837000000
1,PPG,ARQ,2021-06-30,2021-07-20,2021-06-30,2021-10-21,-2664000000,22353000000,,7446000000,14907000000,,26.298,-62000000.0,1195000000,1195000000,2629000000.0,433000000.0,1.357,2.554,8087000000,964000000,7123000000,8087000000,0,137000000.0,0,0.014,0.54,622000000.0,759000000.0,0.174,759000000.0,622000000.0,591000000.0,1.81,1.8,1.81,6242000000,,6242000000,44510644364,21.0,16.879,542000000.0,2.283,1.0,1730000000.0,0.397,9257000000,31000000.0,14500000000,,2226000000,379000000,110000000,269000000,15942000000,5488000000,10454000000,37618644364,-613000000.0,-1770000000.0,24000000.0,706000000.0,-128000000.0,585000000.0,-1818000000.0,0.0,604000000.0,16000000.0,431000000.0,431000000.0,431000000.0,0.0,2000000.0,0.099,1189000000.0,541000000.0,4318000000,0.298,6.027,24.7,24.725,4358000000,0.0,158.49,2.399,2.399,3498000000,20022000000,4359000000.0,4359000000.0,107000000.0,,,,,18000000.0,955000000.0,1.0,237356580,237356580,,18.365,13096000000,338000000,160000000.0,683000000,55.174,1958000000
2,PPG,ARQ,2021-03-31,2021-04-16,2021-03-31,2021-10-21,-2730000000,20139000000,,7339000000,12800000000,,24.628,-80000000.0,1808000000,1808000000,2232000000.0,385000000.0,1.433,2.427,7073000000,1061000000,6012000000,7073000000,0,129000000.0,0,0.013,0.54,522000000.0,651000000.0,0.168,651000000.0,522000000.0,492000000.0,1.59,1.58,1.59,5839000000,,5839000000,44956434276,27.0,20.689,-103000000.0,-0.434,1.0,1649000000.0,0.425,7454000000,30000000.0,12830000000,,1914000000,549000000,120000000,429000000,14170000000,5120000000,9050000000,39691434276,-18000000.0,-356000000.0,20000000.0,588000000.0,-128000000.0,469000000.0,-424000000.0,0.0,-23000000.0,-40000000.0,378000000.0,378000000.0,378000000.0,0.0,7000000.0,0.097,1139000000.0,510000000.0,3815000000,0.34,6.798,33.242,33.282,3903000000,0.0,167.41,2.768,2.768,3034000000,19719000000,3881000000.0,3881000000.0,102000000.0,,,,,17000000.0,891000000.0,1.0,237091179,237091179,,16.369,12685000000,334000000,114000000.0,422000000,53.503,2219000000
3,PPG,ARQ,2020-12-31,2021-02-18,2020-12-31,2021-10-21,-2599000000,19556000000,,6798000000,12758000000,,24.026,-134000000.0,1826000000,1826000000,2140000000.0,278000000.0,1.407,2.415,6606000000,758000000,5848000000,6606000000,0,125000000.0,0,0.019,0.54,370000000.0,495000000.0,0.132,495000000.0,370000000.0,339000000.0,1.14,1.14,1.14,5689000000,,5689000000,37051953048,25.0,18.554,832000000.0,3.514,1.0,1617000000.0,0.43,7453000000,31000000.0,12052000000,,1735000000,363000000,96000000,267000000,13741000000,4831000000,8910000000,32271953048,-182000000.0,-1124000000.0,31000000.0,149000000.0,-128000000.0,46000000.0,-1256000000.0,0.0,966000000.0,82000000.0,272000000.0,272000000.0,272000000.0,3000000.0,6000000.0,0.072,1261000000.0,356000000.0,3792000000,0.474,5.673,30.474,30.49,3974000000,0.0,136.29,2.333,2.333,2726000000,19469000000,3757000000.0,3757000000.0,100000000.0,,,,,15000000.0,882000000.0,1.0,236788855,236788855,,15.866,12103000000,379000000,67000000.0,435000000,51.113,1967000000
4,PPG,ARQ,2020-09-30,2020-10-20,2020-09-30,2021-10-21,-2788000000,18300000000,,7002000000,11298000000,,22.481,-78000000.0,2008000000,2008000000,2026000000.0,448000000.0,1.518,2.425,6347000000,849000000,5498000000,6347000000,0,132000000.0,0,0.015,0.54,600000000.0,732000000.0,0.199,732000000.0,600000000.0,566000000.0,1.87,1.86,1.87,5310000000,,5310000000,36139200661,23.0,17.577,764000000.0,3.234,1.0,1659000000.0,0.45,6349000000,34000000.0,11677000000,,1672000000,354000000,87000000,267000000,12876000000,4613000000,8263000000,31800200661,-244000000.0,0.0,17000000.0,-918000000.0,-127000000.0,-1032000000.0,-80000000.0,0.0,842000000.0,26000000.0,442000000.0,442000000.0,442000000.0,0.0,6000000.0,0.12,1081000000.0,578000000.0,3482000000,0.289,5.989,29.472,29.46,3726000000,0.0,134.63,2.313,2.313,2843000000,19325000000,3685000000.0,3685000000.0,92000000.0,,,,,14000000.0,836000000.0,1.0,236204417,236204417,,15.601,11951000000,257000000,124000000.0,436000000,50.596,2389000000
5,PPG,ARQ,2020-06-30,2020-07-17,2020-06-30,2021-10-21,-2925000000,18170000000,,7077000000,11093000000,,20.477,-55000000.0,2252000000,2252000000,1703000000.0,100000000.0,1.352,2.738,7141000000,1859000000,5282000000,7141000000,0,123000000.0,0,0.018,0.51,172000000.0,295000000.0,0.098,295000000.0,172000000.0,131000000.0,0.43,0.43,0.43,4832000000,,4832000000,31290147372,22.0,15.916,426000000.0,1.805,1.0,1312000000.0,0.435,6223000000,41000000.0,11602000000,,1706000000,296000000,45000000,251000000,13232000000,5234000000,7998000000,26401147372,366000000.0,-1000000.0,1000000.0,50000000.0,-121000000.0,-85000000.0,-52000000.0,0.0,481000000.0,22000000.0,102000000.0,102000000.0,102000000.0,0.0,-2000000.0,0.034,1161000000.0,151000000.0,3055000000,1.186,5.464,26.296,26.325,3691000000,0.0,111.88,1.901,1.901,2673000000,19010000000,3015000000.0,3015000000.0,86000000.0,,,,,8000000.0,766000000.0,1.0,235977363,235977363,,12.777,11947000000,188000000,29000000.0,397000000,50.628,1843000000
6,PPG,ARQ,2020-03-31,2020-04-28,2020-03-31,2021-10-21,-3042000000,18064000000,,7066000000,10998000000,,20.019,-37000000.0,1886000000,1886000000,1908000000.0,248000000.0,1.36,2.801,7000000000,1622000000,5378000000,7000000000,0,129000000.0,0,0.022,0.0,346000000.0,475000000.0,0.141,475000000.0,346000000.0,314000000.0,1.03,1.02,1.03,4723000000,,4723000000,26698634428,16.0,12.191,-196000000.0,-0.831,1.0,1469000000.0,0.435,6161000000,32000000.0,11822000000,,1859000000,295000000,50000000,245000000,13227000000,5195000000,8032000000,21584634428,670000000.0,-44000000.0,5000000.0,1158000000.0,-120000000.0,1012000000.0,-59000000.0,0.0,-159000000.0,-124000000.0,243000000.0,243000000.0,243000000.0,0.0,5000000.0,0.072,1145000000.0,324000000.0,3367000000,0.0,4.57,18.386,18.408,3647000000,0.0,91.49,1.449,1.449,2804000000,19029000000,3377000000.0,3377000000.0,101000000.0,,,,,7000000.0,905000000.0,1.0,235923428,235923428,,14.314,11903000000,183000000,71000000.0,399000000,50.453,1871000000
7,PPG,ARQ,2019-12-31,2020-02-20,2019-12-31,2021-10-21,-2350000000,17708000000,,6170000000,11538000000,,22.413,-189000000.0,1216000000,1216000000,2111000000.0,300000000.0,1.41,2.329,5844000000,683000000,5161000000,5844000000,0,134000000.0,0,0.021,0.51,420000000.0,554000000.0,0.151,554000000.0,420000000.0,387000000.0,1.24,1.23,1.24,5284000000,,5284000000,32767827566,19.0,14.384,620000000.0,2.63,1.0,1561000000.0,0.425,6601000000,33000000.0,11360000000,,1710000000,315000000,57000000,258000000,12305000000,4375000000,7930000000,28139827566,-216000000.0,-79000000.0,-121000000.0,-534000000.0,-121000000.0,-799000000.0,-261000000.0,0.0,809000000.0,35000000.0,292000000.0,292000000.0,292000000.0,0.0,8000000.0,0.08,1167000000.0,394000000.0,3496000000,0.411,5.325,22.639,22.735,3765000000,0.0,119.36,1.858,1.858,2756000000,18906000000,3672000000.0,3672000000.0,109000000.0,,,,,11000000.0,894000000.0,1.0,235755928,235755928,,15.575,11107000000,220000000,95000000.0,452000000,47.112,1795000000
8,PPG,ARQ,2019-09-30,2019-10-18,2019-09-30,2021-10-21,-2328000000,18064000000,,6817000000,11247000000,,22.189,-91000000.0,1432000000,1432000000,2181000000.0,373000000.0,1.489,2.422,6274000000,801000000,5473000000,6274000000,0,133000000.0,0,0.016,0.51,509000000.0,642000000.0,0.168,642000000.0,509000000.0,476000000.0,1.55,1.54,1.55,5247000000,,5247000000,34217824703,20.0,15.4,698000000.0,2.952,1.0,1645000000.0,0.43,6418000000,33000000.0,11910000000,,1860000000,312000000,58000000,254000000,12709000000,4578000000,8131000000,29375824703,469000000.0,-203000000.0,10000000.0,124000000.0,-120000000.0,9000000.0,-291000000.0,0.0,789000000.0,-38000000.0,367000000.0,367000000.0,367000000.0,0.0,6000000.0,0.096,1155000000.0,490000000.0,3636000000,0.329,5.599,24.298,24.311,3604000000,0.0,124.23,1.943,1.943,3028000000,18735000000,3826000000.0,3826000000.0,107000000.0,,,,,9000000.0,887000000.0,1.0,236463211,236463211,,16.18,11646000000,194000000,109000000.0,455000000,49.251,2239000000
9,PPG,ARQ,2019-06-30,2019-07-19,2019-06-30,2021-10-21,-2230000000,17955000000,,6707000000,11248000000,,21.495,-86000000.0,963000000,963000000,2288000000.0,279000000.0,1.425,2.514,6238000000,821000000,5417000000,6238000000,0,126000000.0,0,0.016,0.48,393000000.0,519000000.0,0.129,519000000.0,393000000.0,358000000.0,1.15,1.14,1.15,5079000000,,5079000000,33041777386,19.0,15.088,462000000.0,1.955,1.0,1736000000.0,0.431,6393000000,35000000.0,12131000000,,1945000000,304000000,53000000,251000000,12768000000,4706000000,8062000000,27766777386,179000000.0,-304000000.0,15000000.0,143000000.0,-114000000.0,0.0,-371000000.0,0.0,548000000.0,2000000.0,272000000.0,272000000.0,272000000.0,0.0,7000000.0,0.068,1376000000.0,360000000.0,3746000000,0.417,5.467,22.76,22.951,3660000000,0.0,117.51,1.838,1.838,3332000000,18488000000,4024000000.0,4024000000.0,111000000.0,,,,,10000000.0,934000000.0,1.0,236292889,236292889,,17.03,11562000000,199000000,86000000.0,382000000,48.931,2001000000
10,PPG,ARQ,2019-03-31,2019-04-19,2019-03-31,2021-10-21,-2224000000,17371000000,,6409000000,10962000000,,20.774,-47000000.0,784000000,784000000,2073000000.0,317000000.0,1.397,2.521,6013000000,821000000,5192000000,6013000000,0,118000000.0,0,0.016,0.48,445000000.0,563000000.0,0.155,563000000.0,445000000.0,414000000.0,1.32,1.31,1.32,4904000000,,4904000000,33523147165,19.0,14.563,-113000000.0,-0.479,1.0,1551000000.0,0.428,6123000000,31000000.0,11889000000,,1965000000,316000000,55000000,261000000,12361000000,4588000000,7773000000,28294147165,-118000000.0,-57000000.0,-168000000.0,308000000.0,-113000000.0,32000000.0,-86000000.0,0.0,-66000000.0,2000000.0,312000000.0,312000000.0,312000000.0,0.0,5000000.0,0.086,1123000000.0,428000000.0,3684000000,0.364,5.77,21.451,21.872,3592000000,0.0,119.86,1.859,1.859,3197000000,18330000000,3624000000.0,3624000000.0,105000000.0,,,,,9000000.0,889000000.0,1.0,236059963,236059963,,15.352,11248000000,242000000,102000000.0,447000000,47.649,1821000000
11,PPG,ARQ,2018-12-31,2019-02-21,2018-12-31,2021-10-21,-2300000000,16015000000,,5961000000,10054000000,,19.627,-158000000.0,902000000,902000000,2188000000.0,261000000.0,1.363,2.437,5016000000,651000000,4365000000,5016000000,0,127000000.0,0,0.017,0.48,371000000.0,498000000.0,0.137,498000000.0,371000000.0,341000000.0,1.09,1.09,1.09,4630000000,,4630000000,30093552134,17.0,13.033,642000000.0,2.722,1.0,1457000000.0,0.4,6042000000,30000000.0,9714000000,,1783000000,312000000,61000000,251000000,11283000000,4373000000,6910000000,25979552134,-201000000.0,-280000000.0,-407000000.0,-8000000.0,-115000000.0,-535000000.0,-453000000.0,0.0,800000000.0,-13000000.0,258000000.0,258000000.0,258000000.0,0.0,3000000.0,0.071,1132000000.0,325000000.0,3623000000,0.44,5.611,19.373,20.024,2805000000,0.0,110.13,1.69,1.69,2845000000,18131000000,3645000000.0,3645000000.0,105000000.0,,,,,16000000.0,855000000.0,1.0,235898957,235898957,,15.452,9973000000,229000000,83000000.0,429000000,42.277,1588000000
12,PPG,ARQ,2018-09-30,2018-10-19,2018-09-30,2021-10-21,-2197000000,16718000000,,6741000000,9977000000,,20.76,-108000000.0,1103000000,1103000000,2253000000.0,382000000.0,1.714,2.337,5038000000,15000000,5023000000,5038000000,0,122000000.0,0,0.018,0.48,488000000.0,610000000.0,0.16,610000000.0,488000000.0,457000000.0,1.56,1.55,1.56,4980000000,,4980000000,28256922812,15.0,12.122,428000000.0,1.784,1.0,1564000000.0,0.41,5943000000,31000000.0,10777000000,,1962000000,323000000,57000000,266000000,11640000000,3933000000,7707000000,24321922812,83000000.0,0.0,-246000000.0,-8000000.0,-116000000.0,-365000000.0,-94000000.0,0.0,536000000.0,6000000.0,378000000.0,378000000.0,378000000.0,0.0,4000000.0,0.099,1112000000.0,452000000.0,3806000000,0.308,4.884,19.726,20.238,2738000000,0.0,101.39,1.578,1.578,3217000000,17987000000,3817000000.0,3817000000.0,110000000.0,,,,,3000000.0,867000000.0,1.0,239884829,239884829,,15.912,10775000000,306000000,79000000.0,460000000,44.917,2808000000
13,PPG,ARQ,2018-06-30,2018-07-20,2018-06-30,2021-10-21,-2275000000,16794000000,,6879000000,9915000000,,20.18,-43000000.0,1020000000,1020000000,2379000000.0,375000000.0,1.7,2.418,5070000000,22000000,5048000000,5070000000,0,125000000.0,0,0.017,0.45,506000000.0,631000000.0,0.153,631000000.0,506000000.0,475000000.0,1.51,1.51,1.51,4884000000,,4884000000,29461900920,14.0,11.345,316000000.0,1.306,1.0,1752000000.0,0.424,5906000000,31000000.0,10891000000,,1956000000,321000000,63000000,258000000,11811000000,4047000000,7764000000,25411900920,-326000000.0,-2000000.0,-462000000.0,1000000.0,-110000000.0,-600000000.0,-39000000.0,0.0,359000000.0,-46000000.0,371000000.0,371000000.0,371000000.0,0.0,4000000.0,0.09,1273000000.0,479000000.0,3893000000,0.298,5.203,17.358,18.01,2738000000,0.0,105.0,1.654,1.654,3438000000,17725000000,4131000000.0,4131000000.0,114000000.0,,,,,9000000.0,945000000.0,1.0,242018104,242018104,,17.069,10888000000,290000000,104000000.0,425000000,44.988,2832000000
14,PPG,ARQ,2018-03-31,2018-06-28,2018-03-31,2021-10-21,-2005000000,17544000000,,7110000000,10434000000,,21.957,-75000000.0,1346000000,1346000000,2181000000.0,340000000.0,1.764,2.259,5218000000,19000000,5199000000,5218000000,0,123000000.0,0,0.017,0.45,447000000.0,570000000.0,0.151,570000000.0,447000000.0,421000000.0,1.34,1.33,1.34,5346000000,,5346000000,29612075932,13.0,10.713,-303000000.0,-1.244,1.0,1600000000.0,0.423,6232000000,26000000.0,11154000000,,1963000000,328000000,58000000,270000000,12077000000,4030000000,8047000000,25740075932,-90000000.0,-96000000.0,-591000000.0,998000000.0,-112000000.0,295000000.0,-178000000.0,0.0,-228000000.0,21000000.0,334000000.0,334000000.0,334000000.0,0.0,6000000.0,0.088,1182000000.0,418000000.0,3924000000,0.336,4.815,16.148,16.861,2862000000,0.0,105.72,1.711,1.711,3343000000,17464000000,3781000000.0,3781000000.0,112000000.0,,,,,9000000.0,906000000.0,1.0,243474044,243474044,,15.529,11312000000,351000000,87000000.0,471000000,46.461,3080000000
15,PPG,ARQ,2017-12-31,2018-02-15,2017-12-31,2021-10-21,-2057000000,16538000000,,6477000000,10061000000,,22.243,-153000000.0,1436000000,1436000000,2117000000.0,152000000.0,1.663,1.955,4146000000,12000000,4134000000,4146000000,0,120000000.0,0,0.015,0.9,398000000.0,518000000.0,0.141,518000000.0,398000000.0,371000000.0,0.59,0.59,0.59,5558000000,,5558000000,31743628424,14.0,11.452,383000000.0,1.533,1.0,1565000000.0,0.425,5987000000,27000000.0,9367000000,,1730000000,323000000,55000000,268000000,10865000000,3894000000,6971000000,29033628424,-851000000.0,-156000000.0,-393000000.0,-592000000.0,-113000000.0,-1103000000.0,-283000000.0,-1000000.0,536000000.0,-1000000.0,147000000.0,147000000.0,147000000.0,0.0,5000000.0,0.04,1211000000.0,354000000.0,3780000000,1.525,5.224,18.249,18.71,2824000000,0.0,116.19,1.968,1.968,2903000000,17141000000,3682000000.0,3682000000.0,116000000.0,,,,,9000000.0,912000000.0,1.0,249880613,249880613,,14.735,10551000000,305000000,224000000.0,442000000,42.224,2583000000
16,PPG,ARQ,2017-09-30,2017-10-20,2017-09-30,2021-10-21,-2063000000,17615000000,,7638000000,9977000000,,23.193,-72000000.0,2287000000,2287000000,2100000000.0,615000000.0,1.654,1.966,4705000000,616000000,4089000000,4705000000,0,117000000.0,0,0.014,0.45,759000000.0,876000000.0,0.232,876000000.0,759000000.0,732000000.0,2.38,2.36,2.38,5902000000,,5902000000,32385085164,14.0,11.562,514000000.0,2.02,1.0,1676000000.0,0.444,5980000000,27000000.0,9435000000,,1805000000,302000000,41000000,261000000,11605000000,4618000000,6987000000,29967085164,718000000.0,534000000.0,-225000000.0,-24000000.0,-116000000.0,-361000000.0,477000000.0,0.0,586000000.0,16000000.0,609000000.0,609000000.0,609000000.0,0.0,6000000.0,0.161,1149000000.0,527000000.0,3895000000,0.189,5.077,16.76,16.993,2730000000,0.0,117.76,2.046,2.046,3155000000,17106000000,3776000000.0,3776000000.0,114000000.0,,,,,9000000.0,905000000.0,1.0,254475927,254475927,,14.838,11635000000,421000000,123000000.0,445000000,45.721,3020000000
17,PPG,ARQ,2017-06-30,2017-07-21,2017-06-30,2021-10-21,-2059000000,16977000000,,7145000000,9832000000,,21.951,-71000000.0,1569000000,1569000000,2082000000.0,506000000.0,1.609,1.997,4617000000,619000000,3998000000,4617000000,0,109000000.0,0,0.015,0.4,689000000.0,798000000.0,0.21,798000000.0,689000000.0,663000000.0,1.95,1.94,1.95,5630000000,,5630000000,30329754199,25.0,18.216,366000000.0,1.427,1.0,1724000000.0,0.453,5963000000,26000000.0,9621000000,,1766000000,304000000,48000000,256000000,11242000000,4441000000,6801000000,27281754199,220000000.0,-49000000.0,11000000.0,-26000000.0,-102000000.0,-118000000.0,-123000000.0,-19000000.0,437000000.0,24000000.0,501000000.0,501000000.0,501000000.0,0.0,5000000.0,0.132,1103000000.0,621000000.0,3653000000,0.205,4.846,27.419,27.557,2710000000,0.0,106.37,1.861,1.861,3191000000,16613000000,3806000000.0,3806000000.0,113000000.0,,,,,8000000.0,865000000.0,1.0,256479780,256479780,,14.839,11014000000,321000000,162000000.0,390000000,42.943,2704000000
18,PPG,ARQ,2017-03-31,2017-04-24,2017-03-31,2021-10-21,-2076000000,16154000000,,6646000000,9508000000,,20.266,-64000000.0,1349000000,1349000000,1969000000.0,339000000.0,1.555,2.093,4421000000,604000000,3817000000,4421000000,0,114000000.0,0,0.015,0.0,468000000.0,582000000.0,0.163,582000000.0,468000000.0,443000000.0,1.3,1.29,1.3,5192000000,,5192000000,30743824361,25.0,18.235,-55000000.0,-0.215,1.0,1600000000.0,0.448,5800000000,25000000.0,9153000000,,1727000000,215000000,40000000,175000000,10868000000,4273000000,6595000000,27671824361,-471000000.0,-61000000.0,-154000000.0,-46000000.0,-103000000.0,-372000000.0,-138000000.0,19000000.0,9000000.0,30000000.0,334000000.0,334000000.0,334000000.0,0.0,5000000.0,0.094,1156000000.0,444000000.0,3573000000,0.0,5.33,32.028,32.83,2806000000,0.0,108.01,1.855,1.855,3057000000,16214000000,3569000000.0,3569000000.0,110000000.0,,,,,16000000.0,896000000.0,1.0,256196874,256196874,,13.931,10354000000,139000000,109000000.0,400000000,40.414,2373000000
19,PPG,ARQ,2016-12-31,2017-02-16,2016-12-31,2021-10-21,-2356000000,15769000000,,6452000000,9317000000,,18.771,-144000000.0,1820000000,1820000000,1968000000.0,348000000.0,1.522,2.249,4416000000,629000000,3787000000,4416000000,0,113000000.0,0,0.016,0.8,432000000.0,545000000.0,0.156,545000000.0,432000000.0,403000000.0,1.3,1.3,1.3,4826000000,,4826000000,28760507265,23.0,16.868,430000000.0,1.673,1.0,1529000000.0,0.437,5555000000,29000000.0,8570000000,,1546000000,222000000,43000000,179000000,10856000000,4240000000,6616000000,26164507265,891000000.0,1066000000.0,-648000000.0,211000000.0,-105000000.0,-517000000.0,881000000.0,-41000000.0,574000000.0,-47000000.0,344000000.0,344000000.0,344000000.0,0.0,4000000.0,0.098,1454000000.0,75000000.0,3510000000,0.615,5.422,29.834,30.839,2759000000,0.0,101.77,1.774,1.774,2692000000,15984000000,3497000000.0,3497000000.0,116000000.0,,,,,1000000.0,916000000.0,1.0,257094500,257094500,,13.602,10214000000,154000000,59000000.0,417000000,39.729,2212000000
20,PPG,ARQ,2016-09-30,2016-10-21,2016-09-30,2021-10-21,-2541000000,16490000000,,6417000000,10073000000,,19.057,-90000000.0,929000000,929000000,2081000000.0,-179000000.0,1.439,2.26,4404000000,652000000,3752000000,4404000000,0,107000000.0,0,0.016,0.4,-367000000.0,-260000000.0,-0.069,-260000000.0,-367000000.0,-401000000.0,-0.69,-0.69,-0.69,5031000000,,5031000000,27862880641,22.0,15.958,686000000.0,2.599,1.0,1708000000.0,0.451,5774000000,34000000.0,9731000000,,1676000000,374000000,46000000,328000000,11369000000,4460000000,6909000000,24387880641,-676000000.0,-311000000.0,-244000000.0,-718000000.0,-106000000.0,-1056000000.0,-392000000.0,0.0,776000000.0,-4000000.0,-184000000.0,-184000000.0,-184000000.0,0.0,5000000.0,-0.049,2116000000.0,-408000000.0,3567000000,-0.58,4.848,28.793,29.234,2863000000,0.0,92.38,1.602,1.602,2962000000,15744000000,3789000000.0,3789000000.0,117000000.0,,,,,11000000.0,899000000.0,1.0,263995244,263995244,,14.353,10716000000,516000000,-217000000.0,521000000,40.592,1957000000
21,PPG,ARQ,2016-06-30,2016-07-22,2016-06-30,2021-10-21,-2749000000,17248000000,,7107000000,10141000000,,20.076,-91000000.0,1605000000,1605000000,2190000000.0,376000000.0,1.624,2.21,5112000000,686000000,4426000000,5112000000,0,121000000.0,0,0.014,0.4,698000000.0,819000000.0,0.202,819000000.0,698000000.0,667000000.0,1.38,1.37,1.38,5346000000,,5346000000,32172289703,14.0,11.755,-175000000.0,-0.657,1.0,1874000000.0,0.461,5675000000,31000000.0,10705000000,,1803000000,386000000,64000000,322000000,11815000000,4375000000,7440000000,28665289703,696000000.0,-4000000.0,9000000.0,903000000.0,-107000000.0,798000000.0,10000000.0,102000000.0,-84000000.0,-28000000.0,370000000.0,370000000.0,370000000.0,0.0,6000000.0,0.091,1230000000.0,644000000.0,3577000000,0.29,5.362,19.58,19.752,2950000000,0.0,107.65,1.873,1.873,3108000000,16034000000,4064000000.0,4064000000.0,119000000.0,,,,,17000000.0,956000000.0,1.0,266282301,266282301,,15.262,11573000000,540000000,297000000.0,546000000,43.461,2732000000
22,PPG,ARQ,2016-03-31,2016-04-21,2016-03-31,2021-10-21,-2643000000,17315000000,,6718000000,10597000000,,19.398,-77000000.0,909000000,909000000,2013000000.0,354000000.0,1.475,2.338,4264000000,38000000,4226000000,4264000000,0,121000000.0,0,0.013,0.0,495000000.0,616000000.0,0.168,616000000.0,495000000.0,464000000.0,1.3,1.29,1.3,5161000000,,5161000000,32691151366,16.0,12.952,-18000000.0,-0.068,1.0,1659000000.0,0.452,5913000000,31000000.0,10201000000,,1863000000,491000000,121000000,370000000,12067000000,4556000000,7511000000,29336151366,-402000000.0,-6000000.0,-136000000.0,-163000000.0,-96000000.0,-409000000.0,-63000000.0,31000000.0,59000000.0,11000000.0,347000000.0,347000000.0,347000000.0,0.0,7000000.0,0.094,1182000000.0,477000000.0,3616000000,0.0,5.684,20.5,20.765,3038000000,0.0,110.26,1.912,1.912,3106000000,15770000000,3672000000.0,3672000000.0,118000000.0,,,,,10000000.0,919000000.0,1.0,266063408,266063408,,13.801,11402000000,648000000,117000000.0,479000000,42.854,2162000000
23,PPG,ARQ,2015-12-31,2016-02-18,2015-12-31,2021-10-21,-2702000000,17076000000,,6554000000,10522000000,,18.679,-210000000.0,1311000000,1311000000,2093000000.0,319000000.0,1.408,2.41,4325000000,283000000,4042000000,4325000000,0,125000000.0,0,0.015,0.72,446000000.0,571000000.0,0.154,571000000.0,446000000.0,414000000.0,1.17,1.16,1.17,4983000000,,4983000000,28274037694,14.0,11.387,641000000.0,2.403,1.0,1603000000.0,0.434,5847000000,32000000.0,9587000000,,1705000000,511000000,144000000,367000000,12007000000,4656000000,7351000000,25260037694,296000000.0,-72000000.0,-248000000.0,-151000000.0,-96000000.0,-486000000.0,-44000000.0,250000000.0,851000000.0,-25000000.0,314000000.0,314000000.0,314000000.0,1000000.0,5000000.0,0.085,1197000000.0,406000000.0,3490000000,0.615,5.069,17.966,18.28,3017000000,0.0,94.69,1.648,1.648,2788000000,15521000000,3696000000.0,3696000000.0,125000000.0,,,,,13000000.0,922000000.0,1.0,266765632,266765632,,13.855,11229000000,672000000,100000000.0,460000000,42.093,1898000000
24,PPG,ARQ,2015-09-30,2015-10-26,2015-09-30,2021-10-21,-2592000000,17574000000,,7292000000,10282000000,,18.981,-104000000.0,1015000000,1015000000,2150000000.0,439000000.0,1.529,2.422,4552000000,302000000,4250000000,4552000000,0,125000000.0,0,0.013,0.36,606000000.0,731000000.0,0.189,731000000.0,606000000.0,575000000.0,1.6,1.59,1.6,5111000000,,5111000000,31522147956,20.0,15.068,696000000.0,2.585,1.0,1722000000.0,0.445,5867000000,31000000.0,10474000000,,1841000000,852000000,399000000,453000000,12378000000,4770000000,7608000000,27985147956,308000000.0,-222000000.0,-149000000.0,33000000.0,-98000000.0,-226000000.0,-243000000.0,64000000.0,800000000.0,-23000000.0,433000000.0,433000000.0,433000000.0,0.0,6000000.0,0.112,1160000000.0,562000000.0,3611000000,0.225,5.475,23.817,23.947,2919000000,0.0,103.93,1.824,1.824,3062000000,15302000000,3872000000.0,3872000000.0,119000000.0,,,,,3000000.0,890000000.0,1.0,269269200,269269200,,14.38,11707000000,760000000,142000000.0,506000000,43.477,2522000000
25,PPG,ARQ,2015-06-30,2015-07-27,2015-06-30,2021-10-21,-2332000000,17596000000,,7374000000,10222000000,,19.101,-90000000.0,707000000,707000000,2283000000.0,342000000.0,1.528,2.386,4515000000,293000000,4222000000,4515000000,0,125000000.0,0,0.013,0.36,481000000.0,606000000.0,0.148,606000000.0,481000000.0,447000000.0,1.24,1.23,1.24,5171000000,,5171000000,31527161689,21.0,15.654,525000000.0,1.939,1.0,1817000000.0,0.443,5881000000,34000000.0,10698000000,,1861000000,934000000,475000000,459000000,12340000000,4825000000,7515000000,27719161689,-28000000.0,-17000000.0,-145000000.0,-264000000.0,-98000000.0,-500000000.0,-143000000.0,-60000000.0,615000000.0,0.0,337000000.0,337000000.0,337000000.0,0.0,5000000.0,0.082,1379000000.0,438000000.0,3590000000,0.29,5.361,24.905,25.065,2917000000,0.0,102.39,1.799,1.799,3286000000,14966000000,4100000000.0,4100000000.0,123000000.0,,,,,25000000.0,954000000.0,1.0,270721376,270721376,,15.145,11715000000,798000000,110000000.0,501000000,43.273,2549000000
26,PPG,ARQ,2015-03-31,2015-04-27,2015-03-31,2021-10-21,-2309000000,17368000000,,7084000000,10284000000,,18.679,-72000000.0,735000000,735000000,2065000000.0,327000000.0,1.484,2.404,4644000000,621000000,4023000000,4644000000,0,120000000.0,0,0.012,0.0,455000000.0,575000000.0,0.157,575000000.0,455000000.0,426000000.0,1.18,1.17,1.18,5078000000,,5078000000,33928247383,21.0,16.296,-501000000.0,-1.843,1.0,1597000000.0,0.436,5818000000,29000000.0,10686000000,,1881000000,884000000,435000000,449000000,12210000000,4773000000,7437000000,30019247383,49000000.0,38000000.0,-156000000.0,724000000.0,-91000000.0,458000000.0,35000000.0,70000000.0,-429000000.0,-15000000.0,322000000.0,322000000.0,322000000.0,0.0,5000000.0,0.088,1180000000.0,417000000.0,3329000000,0.0,5.912,25.834,26.074,2965000000,0.0,110.425,1.951,1.951,2961000000,14728000000,3662000000.0,3662000000.0,119000000.0,,,,,15000000.0,914000000.0,1.0,271851912,271851912,,13.471,11550000000,823000000,104000000.0,624000000,42.486,2311000000
27,PPG,ARQ,2014-12-31,2015-02-19,2014-12-31,2021-10-21,-2116000000,17583000000,,6850000000,10733000000,,19.037,-285000000.0,686000000,686000000,2165000000.0,89000000.0,1.405,2.378,4025000000,481000000,3544000000,4025000000,0,123000000.0,0,0.011,0.67,57000000.0,180000000.0,0.049,180000000.0,57000000.0,12000000.0,0.32,0.31,0.32,5180000000,,5180000000,35378820452,14.0,11.699,206000000.0,0.757,1.0,1542000000.0,0.416,6212000000,45000000.0,9834000000,,1825000000,940000000,497000000,443000000,12318000000,4876000000,7442000000,32039820452,-1782000000.0,-1999000000.0,-295000000.0,434000000.0,-92000000.0,-153000000.0,-2077000000.0,119000000.0,491000000.0,-43000000.0,83000000.0,83000000.0,83000000.0,0.0,6000000.0,0.022,1215000000.0,327000000.0,3548000000,2.094,6.185,15.243,15.493,3092000000,0.0,117.75,2.086,2.086,2815000000,14498000000,3707000000.0,3707000000.0,126000000.0,,,,,20000000.0,932000000.0,1.0,272100386,272100386,,13.624,11371000000,911000000,-71000000.0,702000000,41.79,1974000000
28,PPG,ARQ,2014-09-30,2014-10-24,2014-09-30,2021-10-21,-1447000000,17087000000,,8898000000,8189000000,,22.301,-70000000.0,2468000000,2468000000,2229000000.0,377000000.0,1.817,1.778,3348000000,394000000,2954000000,3348000000,0,119000000.0,0,0.013,0.335,534000000.0,653000000.0,0.166,653000000.0,534000000.0,487000000.0,1.345,1.33,1.345,6121000000,,6121000000,27757484738,10.0,8.256,566000000.0,2.062,1.0,1706000000.0,0.434,4172000000,47000000.0,8899000000,,1905000000,1019000000,570000000,449000000,10882000000,4896000000,5986000000,26877484738,482000000.0,-90000000.0,-139000000.0,-35000000.0,-92000000.0,-270000000.0,198000000.0,353000000.0,636000000.0,-82000000.0,371000000.0,371000000.0,371000000.0,0.0,6000000.0,0.094,1333000000.0,373000000.0,3687000000,0.249,4.391,11.825,11.899,2720000000,0.0,97.925,1.75,1.75,2968000000,14506000000,3935000000.0,3935000000.0,120000000.0,,,,,15000000.0,941000000.0,1.0,274470102,274470102,,14.337,12915000000,673000000,116000000.0,241000000,47.054,4002000000
29,PPG,ARQ,2014-06-30,2014-07-23,2014-06-30,2021-10-21,-1181000000,17300000000,,9035000000,8265000000,,22.607,-129000000.0,1986000000,1986000000,2306000000.0,392000000.0,1.821,1.762,3383000000,425000000,2958000000,3383000000,0,115000000.0,0,0.012,0.335,559000000.0,674000000.0,0.165,674000000.0,559000000.0,511000000.0,1.39,1.375,1.39,6232000000,,6232000000,30384986945,11.0,9.609,109000000.0,0.395,1.0,1776000000.0,0.435,4282000000,48000000.0,9453000000,,1964000000,1308000000,927000000,381000000,10979000000,4962000000,6017000000,28987986945,-573000000.0,-2000000.0,-94000000.0,-8000000.0,-92000000.0,-243000000.0,-573000000.0,-447000000.0,238000000.0,5000000.0,386000000.0,386000000.0,386000000.0,0.0,6000000.0,0.095,1248000000.0,528000000.0,3691000000,0.241,4.651,13.622,13.701,2777000000,0.0,105.155,1.882,1.882,3184000000,14227000000,4082000000.0,4082000000.0,126000000.0,,,,,20000000.0,985000000.0,1.0,275669126,275669126,,14.808,13018000000,660000000,125000000.0,271000000,47.223,4073000000
30,PPG,ARQ,2014-03-31,2014-04-24,2014-03-31,2021-10-21,-1230000000,17117000000,,8888000000,8229000000,,21.669,-103000000.0,2559000000,2559000000,2091000000.0,1301000000.0,1.947,1.84,3392000000,19000000,3373000000,3392000000,0,119000000.0,0,0.013,0.0,1398000000.0,1517000000.0,0.417,1517000000.0,1398000000.0,1351000000.0,4.535,4.485,4.535,5992000000,,5992000000,27725981582,11.0,8.892,60000000.0,0.217,1.0,1545000000.0,0.425,4295000000,47000000.0,9089000000,,1929000000,860000000,480000000,380000000,11028000000,4566000000,6462000000,26892981582,1443000000.0,1603000000.0,-165000000.0,-10000000.0,-85000000.0,-303000000.0,1595000000.0,118000000.0,163000000.0,-12000000.0,1262000000.0,1262000000.0,1262000000.0,0.0,39000000.0,0.347,1163000000.0,382000000.0,3712000000,0.0,4.488,12.911,13.011,2724000000,0.0,97.255,1.745,1.745,3016000000,13934000000,3636000000.0,3636000000.0,120000000.0,,,,,18000000.0,900000000.0,1.0,276520298,276520298,,13.149,12822000000,703000000,89000000.0,281000000,46.369,4322000000
31,PPG,ARQ,2013-12-31,2014-02-20,2013-12-31,2021-10-21,-1260000000,15863000000,,7214000000,8649000000,,17.804,-256000000.0,1116000000,1116000000,2108000000.0,282000000.0,1.745,2.162,3406000000,34000000,3372000000,3406000000,0,125000000.0,0,0.013,0.61,393000000.0,518000000.0,0.14,518000000.0,393000000.0,345000000.0,0.96,0.94,0.96,4932000000,,4932000000,28434014859,8.0,6.714,253000000.0,0.913,1.0,1594000000.0,0.431,4347000000,48000000.0,9671000000,,1824000000,1022000000,629000000,393000000,10665000000,4135000000,6530000000,26144014859,-446000000.0,-5000000.0,-671000000.0,7000000.0,-86000000.0,-792000000.0,-165000000.0,100000000.0,509000000.0,2000000.0,254000000.0,254000000.0,254000000.0,0.0,28000000.0,0.069,1232000000.0,362000000.0,3265000000,0.635,5.301,8.092,8.378,2876000000,0.0,94.375,1.73,1.73,2736000000,12757000000,3702000000.0,3702000000.0,126000000.0,,,,,22000000.0,957000000.0,1.0,277022674,277022674,,13.364,11516000000,916000000,91000000.0,249000000,41.571,3079000000
32,PPG,ARQ,2013-09-30,2013-10-28,2013-09-30,2021-10-21,-1469000000,16638000000,,8120000000,8518000000,,18.346,-104000000.0,1562000000,1562000000,2238000000.0,255000000.0,1.862,2.141,3395000000,27000000,3368000000,3395000000,0,119000000.0,0,0.013,0.305,334000000.0,453000000.0,0.114,453000000.0,334000000.0,286000000.0,0.79,0.78,0.79,5211000000,,5211000000,27523474264,7.0,6.552,684000000.0,2.408,1.0,1742000000.0,0.438,4394000000,48000000.0,9715000000,,1878000000,1091000000,687000000,404000000,11157000000,4362000000,6795000000,25690474264,319000000.0,-3000000.0,-166000000.0,1000000.0,-88000000.0,-263000000.0,-226000000.0,-141000000.0,788000000.0,20000000.0,226000000.0,226000000.0,226000000.0,0.0,29000000.0,0.057,1427000000.0,315000000.0,3503000000,0.386,4.93,8.018,8.252,2687000000,0.0,90.445,1.707,1.707,3122000000,12589000000,3980000000.0,3980000000.0,123000000.0,,,,,59000000.0,964000000.0,1.0,284045268,284045268,,14.012,12244000000,1053000000,60000000.0,216000000,43.106,3758000000
33,PPG,ARQ,2013-06-30,2013-07-29,2013-06-30,2021-10-21,-1639000000,16066000000,,7710000000,8356000000,,17.641,-90000000.0,1243000000,1243000000,2343000000.0,371000000.0,1.878,2.135,3379000000,24000000,3355000000,3379000000,0,124000000.0,0,0.015,0.305,506000000.0,630000000.0,0.154,630000000.0,506000000.0,459000000.0,1.19,1.175,1.19,5042000000,,5042000000,25168449804,6.0,5.748,493000000.0,1.725,1.0,1752000000.0,0.428,4311000000,47000000.0,9785000000,,1862000000,940000000,538000000,402000000,10765000000,4106000000,6659000000,23032449804,-778000000.0,-975000000.0,13000000.0,-26000000.0,-87000000.0,-124000000.0,-1220000000.0,-152000000.0,583000000.0,-17000000.0,341000000.0,341000000.0,341000000.0,0.0,30000000.0,0.083,1255000000.0,497000000.0,3343000000,0.256,4.568,6.944,7.147,2637000000,0.0,80.585,1.544,1.544,3223000000,12450000000,4095000000.0,4095000000.0,124000000.0,,,,,0.0,981000000.0,1.0,285815596,285815596,,14.327,11755000000,0,118000000.0,224000000,41.128,3604000000
34,PPG,ARQ,2013-03-31,2013-04-29,2013-03-31,2021-10-21,-1608000000,15376000000,,7726000000,7650000000,,16.779,-65000000.0,2021000000,2021000000,1947000000.0,2445000000.0,2.073,2.159,3401000000,48000000,3353000000,3401000000,0,107000000.0,0,0.016,0.0,2527000000.0,2634000000.0,0.791,2634000000.0,2527000000.0,2474000000.0,8.245,8.155,8.245,4787000000,,4787000000,22351880785,6.0,5.073,-154000000.0,-0.54,1.0,1384000000.0,0.415,3727000000,53000000.0,9302000000,,1698000000,777000000,359000000,418000000,10335000000,3727000000,6608000000,20971880785,715000000.0,940000000.0,-108000000.0,-594000000.0,-84000000.0,-800000000.0,1614000000.0,762000000.0,-89000000.0,-10000000.0,2410000000.0,2410000000.0,2410000000.0,0.0,35000000.0,0.724,1047000000.0,337000000.0,2949000000,0.0,4.381,6.283,6.523,2461000000,0.0,73.51,1.419,1.419,2824000000,12196000000,3331000000.0,3331000000.0,115000000.0,,,,,0.0,797000000.0,1.0,285292896,285292896,,11.676,11649000000,0,64000000.0,235000000,40.832,3999000000
35,PPG,ARQ,2012-12-31,2013-02-21,2012-12-31,2021-10-21,-1666000000,15878000000,,7715000000,8163000000,,14.222,-185000000.0,1306000000,1306000000,2200000000.0,253000000.0,1.729,2.844,4010000000,642000000,3368000000,4010000000,0,117000000.0,0,0.018,0.59,367000000.0,484000000.0,0.133,484000000.0,367000000.0,312000000.0,0.735,0.725,0.735,4063000000,,4063000000,21285427062,14.0,10.893,563000000.0,1.971,1.0,1448000000.0,0.397,3846000000,55000000.0,10275000000,,1687000000,1509000000,1087000000,422000000,11556000000,4461000000,7095000000,18581427062,-86000000.0,-69000000.0,12000000.0,6000000.0,-91000000.0,-110000000.0,-735000000.0,-472000000.0,748000000.0,11000000.0,227000000.0,227000000.0,227000000.0,0.0,26000000.0,0.062,954000000.0,494000000.0,3061000000,0.803,4.573,19.746,21.22,2888000000,0.0,65.04,1.222,1.222,2813000000,9871000000,3648000000.0,3648000000.0,118000000.0,,,,,0.0,847000000.0,1.0,285692298,285692298,,12.769,12032000000,430000000,85000000.0,231000000,42.115,3254000000
36,PPG,ARQ,2012-09-30,2012-10-29,2012-09-30,2021-10-21,-1704000000,15606000000,,7777000000,7829000000,,12.589,-80000000.0,1392000000,1392000000,2288000000.0,364000000.0,1.732,2.972,4001000000,636000000,3365000000,4001000000,0,116000000.0,0,0.02,0.295,515000000.0,631000000.0,0.164,631000000.0,515000000.0,461000000.0,1.105,1.09,1.105,3861000000,,3861000000,20416045197,14.0,10.762,525000000.0,1.712,1.0,1557000000.0,0.405,3772000000,54000000.0,9953000000,,1777000000,1043000000,619000000,424000000,11474000000,4490000000,6984000000,17807045197,375000000.0,-1000000.0,39000000.0,368000000.0,-90000000.0,202000000.0,-446000000.0,-385000000.0,605000000.0,14000000.0,339000000.0,339000000.0,339000000.0,0.0,25000000.0,0.088,1072000000.0,485000000.0,3105000000,0.267,4.612,19.147,19.13,2759000000,0.0,58.06,1.182,1.182,3190000000,9734000000,3845000000.0,3845000000.0,113000000.0,,,,,0.0,816000000.0,1.0,306700744,306700744,,12.537,11834000000,0,122000000.0,263000000,38.585,3287000000
37,PPG,ARQ,2012-06-30,2012-07-30,2012-06-30,2021-10-21,-1793000000,14817000000,,7151000000,7666000000,,11.334,-78000000.0,1017000000,1017000000,2352000000.0,396000000.0,1.566,3.219,3611000000,647000000,2964000000,3611000000,0,114000000.0,0,0.021,0.295,543000000.0,657000000.0,0.166,657000000.0,543000000.0,493000000.0,1.185,1.17,1.185,3461000000,,3461000000,19540851331,14.0,10.483,358000000.0,1.172,1.0,1603000000.0,0.405,3711000000,50000000.0,9135000000,,1775000000,649000000,230000000,419000000,11142000000,4565000000,6577000000,16946851331,39000000.0,-8000000.0,21000000.0,-26000000.0,-90000000.0,-131000000.0,-249000000.0,-175000000.0,436000000.0,-17000000.0,362000000.0,362000000.0,362000000.0,0.0,34000000.0,0.092,1069000000.0,534000000.0,3160000000,0.249,4.897,18.788,19.005,2719000000,0.0,55.495,1.124,1.124,3310000000,9486000000,3955000000.0,3955000000.0,113000000.0,,,,,0.0,821000000.0,1.0,305376184,305376184,,12.951,11106000000,0,131000000.0,241000000,36.368,2586000000
38,PPG,ARQ,2012-03-31,2012-04-30,2012-03-31,2021-10-21,-1653000000,14834000000,,6944000000,7890000000,,10.812,-68000000.0,978000000,978000000,2229000000.0,51000000.0,1.523,3.437,3657000000,669000000,2988000000,3657000000,0,118000000.0,0,0.022,0.0,64000000.0,182000000.0,0.049,182000000.0,64000000.0,13000000.0,0.04,0.04,0.04,3293000000,,3293000000,18705631365,14.0,10.117,-70000000.0,-0.23,1.0,1523000000.0,0.406,3861000000,51000000.0,9094000000,,1830000000,482000000,56000000,426000000,11318000000,4558000000,6760000000,16026631365,-479000000.0,-44000000.0,-42000000.0,-155000000.0,-87000000.0,-312000000.0,-181000000.0,-50000000.0,-2000000.0,16000000.0,13000000.0,13000000.0,13000000.0,0.0,38000000.0,0.003,1462000000.0,61000000.0,3133000000,0.0,4.867,18.212,18.726,2785000000,0.0,52.62,1.061,1.061,3236000000,9213000000,3752000000.0,3752000000.0,111000000.0,,,,,0.0,851000000.0,1.0,304573002,304573002,,12.319,10973000000,0,0.0,262000000,36.027,2386000000
39,PPG,ARQ,2011-12-31,2012-02-16,2011-12-31,2021-10-21,-1800000000,14382000000,,6694000000,7688000000,,10.687,-155000000.0,1457000000,1457000000,2184000000.0,239000000.0,1.808,3.366,3682000000,108000000,3574000000,3682000000,0,115000000.0,0,0.025,0.57,312000000.0,427000000.0,0.121,427000000.0,312000000.0,261000000.0,0.705,0.695,0.705,3249000000,,3249000000,16118508076,10.0,7.473,504000000.0,1.658,1.0,1333000000.0,0.379,3785000000,51000000.0,9120000000,,1607000000,412000000,25000000,387000000,10936000000,3702000000,7234000000,13893508076,156000000.0,0.0,-214000000.0,9000000.0,-87000000.0,-362000000.0,-141000000.0,25000000.0,659000000.0,0.0,216000000.0,216000000.0,216000000.0,0.0,23000000.0,0.061,865000000.0,468000000.0,2996000000,0.809,4.276,12.688,13.132,2721000000,0.0,45.7,0.933,0.933,2830000000,9288000000,3517000000.0,3517000000.0,109000000.0,,,,,0.0,802000000.0,1.0,304015494,304015494,,11.568,10597000000,473000000,45000000.0,272000000,34.857,2992000000
40,PPG,ARQ,2011-09-30,2011-10-31,2011-09-30,2021-10-21,-1464000000,14543000000,,6940000000,7603000000,,11.857,-101000000.0,1301000000,1301000000,2353000000.0,342000000.0,1.832,2.905,3692000000,102000000,3590000000,3692000000,0,116000000.0,0,0.026,0.285,482000000.0,598000000.0,0.155,598000000.0,482000000.0,431000000.0,0.99,0.98,0.99,3662000000,,3662000000,15734634918,9.0,6.244,424000000.0,1.373,1.0,1496000000.0,0.389,3872000000,51000000.0,9274000000,,1737000000,437000000,37000000,400000000,10637000000,3788000000,6849000000,13343634918,319000000.0,-4000000.0,-241000000.0,-9000000.0,-90000000.0,-309000000.0,169000000.0,225000000.0,525000000.0,-66000000.0,311000000.0,311000000.0,311000000.0,0.0,31000000.0,0.081,1047000000.0,449000000.0,3105000000,0.288,3.644,12.31,12.689,2669000000,0.0,43.205,0.905,0.905,3088000000,9159000000,3849000000.0,3849000000.0,108000000.0,,,,,0.0,806000000.0,1.0,308844692,308844692,,12.463,10671000000,0,120000000.0,286000000,34.551,3152000000
41,PPG,ARQ,2011-06-30,2011-08-01,2011-06-30,2021-10-21,-1083000000,15267000000,,7239000000,8028000000,,12.868,-80000000.0,982000000,982000000,2417000000.0,372000000.0,1.846,2.708,3724000000,111000000,3613000000,3724000000,0,119000000.0,0,0.026,0.285,523000000.0,642000000.0,0.161,642000000.0,523000000.0,468000000.0,1.075,1.06,1.075,4054000000,,4054000000,15957793928,10.0,6.867,328000000.0,1.041,1.0,1569000000.0,0.394,4151000000,55000000.0,9936000000,,1821000000,668000000,263000000,405000000,10979000000,3922000000,7057000000,13215793928,186000000.0,36000000.0,-76000000.0,-387000000.0,-89000000.0,-608000000.0,370000000.0,414000000.0,408000000.0,16000000.0,340000000.0,340000000.0,340000000.0,0.0,32000000.0,0.085,1075000000.0,494000000.0,3199000000,0.265,3.26,12.769,13.069,2759000000,0.0,41.95,0.92,0.92,3345000000,8938000000,3986000000.0,3986000000.0,110000000.0,,,,,0.0,829000000.0,1.0,315036804,315036804,,12.652,11116000000,0,128000000.0,305000000,35.285,3317000000
42,PPG,ARQ,2011-03-31,2011-05-02,2011-03-31,2021-10-21,-1187000000,15103000000,,7084000000,8019000000,,11.906,-54000000.0,796000000,796000000,2127000000.0,259000000.0,1.89,2.95,4089000000,96000000,3993000000,4089000000,0,117000000.0,0,0.023,0.0,373000000.0,490000000.0,0.139,490000000.0,373000000.0,320000000.0,0.71,0.7,0.71,3766000000,,3766000000,18179860373,12.0,8.612,-210000000.0,-0.664,1.0,1406000000.0,0.398,4097000000,53000000.0,10550000000,,1755000000,1141000000,587000000,554000000,11108000000,3749000000,7359000000,14886860373,-545000000.0,-10000000.0,-246000000.0,-4000000.0,-89000000.0,-353000000.0,-45000000.0,50000000.0,-156000000.0,9000000.0,228000000.0,228000000.0,228000000.0,0.0,31000000.0,0.065,1052000000.0,354000000.0,3045000000,0.0,3.953,15.395,15.927,2696000000,0.0,47.065,1.076,1.076,3126000000,8687000000,3533000000.0,3533000000.0,103000000.0,,,,,0.0,797000000.0,1.0,316304268,316304268,,11.17,11006000000,0,92000000.0,302000000,34.796,3335000000
43,PPG,ARQ,2010-12-31,2011-02-17,2010-12-31,2021-10-21,-1411000000,14975000000,,7058000000,7917000000,,11.327,-149000000.0,1341000000,1341000000,2086000000.0,228000000.0,1.947,3.063,4071000000,28000000,4043000000,4071000000,0,470000000.0,0,0.024,0.55,320000000.0,790000000.0,0.234,790000000.0,320000000.0,268000000.0,0.63,0.62,0.63,3638000000,,3638000000,17094698573,12.0,9.275,463000000.0,1.442,1.0,1293000000.0,0.383,3987000000,52000000.0,10093000000,,1573000000,1187000000,637000000,550000000,11142000000,3625000000,7517000000,14364698573,411000000.0,-16000000.0,-234000000.0,934000000.0,-90000000.0,590000000.0,-797000000.0,-624000000.0,612000000.0,6000000.0,205000000.0,205000000.0,205000000.0,0.0,23000000.0,0.061,798000000.0,495000000.0,3002000000,0.873,3.949,18.68,19.154,2686000000,0.0,44.725,1.07,1.07,2778000000,8548000000,3379000000.0,3379000000.0,104000000.0,,,,,0.0,768000000.0,1.0,321178280,321178280,,10.521,10988000000,451000000,63000000.0,293000000,34.212,3433000000
44,PPG,ARQ,2010-09-30,2010-11-01,2010-09-30,2021-10-21,-1280000000,14120000000,,6305000000,7815000000,,11.882,-65000000.0,930000000,930000000,2108000000.0,292000000.0,1.79,2.586,3135000000,69000000,3066000000,3135000000,0,0.0,0,0.028,0.275,402000000.0,402000000.0,0.116,402000000.0,402000000.0,356000000.0,0.795,0.79,0.795,3874000000,,3874000000,14703686358,11.0,8.35,266000000.0,0.816,1.0,1352000000.0,0.391,4022000000,46000000.0,8780000000,,1638000000,536000000,0,536000000,10018000000,3523000000,6495000000,12498686358,146000000.0,0.0,-143000000.0,7000000.0,-90000000.0,-218000000.0,-5000000.0,0.0,331000000.0,38000000.0,262000000.0,262000000.0,262000000.0,0.0,30000000.0,0.076,983000000.0,369000000.0,2860000000,0.346,3.226,17.704,17.956,2620000000,0.0,38.335,0.95,0.95,2958000000,8433000000,3460000000.0,3460000000.0,97000000.0,,,,,0.0,739000000.0,1.0,326038512,326038512,,10.612,10098000000,0,94000000.0,316000000,30.972,2782000000
45,PPG,ARQ,2010-06-30,2010-07-26,2010-06-30,2021-10-21,-1603000000,13366000000,,5886000000,7480000000,,10.445,-48000000.0,784000000,784000000,2076000000.0,301000000.0,1.745,2.819,3076000000,59000000,3017000000,3076000000,0,0.0,0,0.032,0.27,429000000.0,429000000.0,0.124,429000000.0,429000000.0,383000000.0,0.82,0.815,0.82,3450000000,,3450000000,13555217656,12.0,8.19,373000000.0,1.129,1.0,1382000000.0,0.4,3764000000,46000000.0,8521000000,,1541000000,525000000,0,525000000,9727000000,3373000000,6354000000,11263217656,95000000.0,-2000000.0,-83000000.0,-50000000.0,-90000000.0,-251000000.0,-54000000.0,0.0,421000000.0,-21000000.0,272000000.0,272000000.0,272000000.0,0.0,29000000.0,0.079,977000000.0,405000000.0,2724000000,0.329,3.265,18.679,18.736,2533000000,0.0,34.1,0.871,0.871,2781000000,8262000000,3458000000.0,3458000000.0,97000000.0,,,,,0.0,745000000.0,1.0,330299638,330299638,,10.469,9602000000,0,111000000.0,301000000,29.071,2513000000
46,PPG,ARQ,2010-03-31,2010-04-26,2010-03-31,2021-10-21,-1353000000,13756000000,,5922000000,7834000000,,10.798,-45000000.0,689000000,689000000,1944000000.0,59000000.0,1.733,2.775,3163000000,112000000,3051000000,3163000000,0,0.0,0,0.03,0.0,222000000.0,222000000.0,0.071,222000000.0,222000000.0,177000000.0,0.09,0.09,0.09,3592000000,,3592000000,14236650178,14.0,9.46,-99000000.0,-0.298,1.0,1182000000.0,0.378,4030000000,45000000.0,8782000000,,1599000000,503000000,0,503000000,9967000000,3418000000,6549000000,11762650178,-368000000.0,-16000000.0,20000000.0,-155000000.0,-90000000.0,-225000000.0,-93000000.0,0.0,-54000000.0,4000000.0,30000000.0,30000000.0,30000000.0,0.0,29000000.0,0.01,967000000.0,215000000.0,2685000000,0.0,3.275,24.66,24.471,2660000000,0.0,35.36,0.935,0.935,2809000000,8080000000,3126000000.0,3126000000.0,96000000.0,,,,,0.0,727000000.0,1.0,332654134,332654134,,9.397,9726000000,0,147000000.0,319000000,29.238,2504000000
47,PPG,ARQ,2009-12-31,2010-02-18,2009-12-31,2021-10-21,-1261000000,14240000000,,5981000000,8259000000,,11.314,-87000000.0,1057000000,1057000000,1934000000.0,163000000.0,1.672,2.749,3346000000,272000000,3074000000,3346000000,0,480000000.0,0,0.034,0.54,228000000.0,708000000.0,0.227,708000000.0,228000000.0,179000000.0,0.43,0.43,0.43,3753000000,,3753000000,12590402058,17.0,10.492,498000000.0,1.501,1.0,1182000000.0,0.379,4200000000,49000000.0,8752000000,,1548000000,499000000,0,499000000,10318000000,3577000000,6741000000,10301402058,159000000.0,-2000000.0,-47000000.0,-176000000.0,-91000000.0,-362000000.0,-65000000.0,0.0,585000000.0,1000000.0,142000000.0,142000000.0,142000000.0,0.0,21000000.0,0.046,823000000.0,359000000.0,2648000000,1.256,2.745,30.659,30.446,2754000000,0.0,31.055,0.842,0.842,2628000000,8139000000,3116000000.0,3116000000.0,102000000.0,,,,,0.0,757000000.0,1.0,331714766,331714766,,9.394,10040000000,485000000,37000000.0,328000000,30.267,2404000000
48,PPG,ARQ,2009-09-30,2009-10-26,2009-09-30,2021-10-21,-1431000000,14569000000,,6248000000,8321000000,,10.594,-49000000.0,898000000,898000000,1989000000.0,185000000.0,1.615,3.062,3537000000,455000000,3082000000,3537000000,0,0.0,0,0.036,0.265,296000000.0,296000000.0,0.092,296000000.0,296000000.0,249000000.0,0.48,0.48,0.48,3538000000,,3538000000,12359214662,18.0,10.024,605000000.0,1.812,1.0,1236000000.0,0.383,4254000000,47000000.0,9085000000,,1656000000,506000000,0,506000000,10835000000,3869000000,6966000000,9720214662,-154000000.0,-3000000.0,0.0,-717000000.0,-88000000.0,-824000000.0,-6000000.0,0.0,654000000.0,22000000.0,159000000.0,159000000.0,159000000.0,0.0,26000000.0,0.049,970000000.0,266000000.0,2720000000,0.552,2.747,36.68,36.381,2765000000,0.0,29.105,0.79,0.79,2853000000,8088000000,3225000000.0,3225000000.0,95000000.0,,,,,0.0,732000000.0,1.0,333970612,333970612,,9.657,10315000000,0,90000000.0,336000000,30.886,2379000000
49,PPG,ARQ,2009-06-30,2009-07-27,2009-06-30,2021-10-21,-1613000000,14565000000,,6422000000,8143000000,,9.626,-52000000.0,1052000000,1052000000,1898000000.0,169000000.0,1.566,3.527,4202000000,896000000,3306000000,4202000000,0,0.0,0,0.04,0.265,279000000.0,279000000.0,0.09,279000000.0,279000000.0,230000000.0,0.445,0.445,0.445,3175000000,,3175000000,11858906447,19.0,10.041,345000000.0,1.046,1.0,1217000000.0,0.391,4142000000,49000000.0,9471000000,,1672000000,499000000,0,499000000,11197000000,4102000000,7095000000,8708906447,521000000.0,-10000000.0,0.0,240000000.0,-87000000.0,143000000.0,-44000000.0,0.0,397000000.0,25000000.0,146000000.0,146000000.0,146000000.0,0.0,23000000.0,0.047,962000000.0,255000000.0,2513000000,0.596,2.743,39.053,39.119,2745000000,0.0,26.405,0.654,0.654,2847000000,8017000000,3115000000.0,3115000000.0,97000000.0,,,,,0.0,731000000.0,1.0,329820354,329820354,,9.445,10423000000,0,84000000.0,293000000,31.602,2320000000
50,PPG,ARQ,2009-03-31,2009-04-27,2009-03-31,2021-10-21,-1877000000,13603000000,,5770000000,7833000000,,8.602,-51000000.0,531000000,531000000,1718000000.0,-91000000.0,1.453,3.746,3855000000,869000000,2986000000,3855000000,0,0.0,0,0.048,0.0,-83000000.0,-83000000.0,-0.03,-83000000.0,-83000000.0,-131000000.0,-0.34,-0.34,-0.34,2830000000,,2830000000,10567084966,14.0,7.927,-342000000.0,-1.039,1.0,1065000000.0,0.383,3932000000,48000000.0,9025000000,,1677000000,493000000,0,493000000,10600000000,3970000000,6630000000,7243084966,-490000000.0,-11000000.0,0.0,7000000.0,-87000000.0,-80000000.0,-88000000.0,0.0,-291000000.0,-31000000.0,-111000000.0,-111000000.0,-111000000.0,0.0,20000000.0,-0.04,1135000000.0,-70000000.0,2414000000,0.0,2.559,22.15,22.237,2658000000,0.0,22.015,0.494,0.494,2713000000,7958000000,2783000000.0,2783000000.0,94000000.0,,,,,0.0,716000000.0,1.0,329006812,329006812,,8.459,9671000000,0,-20000000.0,277000000,29.395,1800000000
51,PPG,ARQ,2008-12-31,2009-02-19,2008-12-31,2021-10-21,-1628000000,14698000000,,6348000000,8350000000,,10.147,-148000000.0,1045000000,1045000000,2029000000.0,71000000.0,1.508,3.363,3912000000,903000000,3009000000,3912000000,0,563000000.0,0,0.063,0.53,178000000.0,741000000.0,0.232,741000000.0,178000000.0,117000000.0,0.215,0.215,0.215,3333000000,,3333000000,8357322261,8.0,5.099,400000000.0,1.218,1.0,1159000000.0,0.364,4113000000,61000000.0,9242000000,,1702000000,509000000,0,509000000,11209000000,4210000000,6999000000,5490322261,505000000.0,-43000000.0,-1000000.0,-12000000.0,-87000000.0,-100000000.0,66000000.0,0.0,548000000.0,-9000000.0,71000000.0,71000000.0,71000000.0,0.0,0.0,0.022,827000000.0,332000000.0,2816000000,2.465,1.647,10.205,10.223,2798000000,0.0,16.715,0.346,0.346,2804000000,8156000000,3188000000.0,3188000000.0,107000000.0,,,,,0.0,750000000.0,1.0,328466782,328466782,,9.706,10585000000,515000000,46000000.0,425000000,32.225,2138000000
52,PPG,ARQ,2008-09-30,2008-10-27,2008-09-30,2021-10-21,-766000000,15046000000,,6579000000,8467000000,,12.801,-89000000.0,558000000,558000000,2701000000.0,117000000.0,1.472,2.539,3947000000,726000000,3221000000,3947000000,0,0.0,0,0.047,0.26,244000000.0,244000000.0,0.058,244000000.0,244000000.0,182000000.0,0.355,0.35,0.355,4204000000,,4204000000,10594575652,9.0,6.714,362000000.0,1.102,1.0,1524000000.0,0.361,4272000000,62000000.0,9694000000,,1818000000,571000000,0,571000000,10676000000,4469000000,6207000000,7205575652,250000000.0,179000000.0,5000000.0,-163000000.0,-85000000.0,-243000000.0,63000000.0,0.0,451000000.0,-21000000.0,117000000.0,117000000.0,117000000.0,0.0,0.0,0.028,1321000000.0,203000000.0,3128000000,0.732,1.714,10.803,10.808,2833000000,0.0,21.94,0.471,0.471,3453000000,8172000000,4225000000.0,4225000000.0,114000000.0,,,,,0.0,877000000.0,1.0,328421862,328421862,,12.865,10774000000,0,65000000.0,495000000,32.805,2110000000
53,PPG,ARQ,2008-06-30,2008-07-28,2008-06-30,2021-10-21,-300000000,16207000000,,7091000000,9116000000,,14.087,-85000000.0,278000000,278000000,2829000000.0,250000000.0,1.494,2.463,4256000000,816000000,3440000000,4256000000,0,0.0,0,0.035,0.26,431000000.0,431000000.0,0.096,431000000.0,431000000.0,366000000.0,0.76,0.755,0.76,4624000000,,4624000000,13758079559,11.0,8.338,225000000.0,0.685,1.0,1645000000.0,0.368,4599000000,65000000.0,10841000000,,2124000000,395000000,0,395000000,11389000000,4745000000,6644000000,9780079559,-32000000.0,-13000000.0,2000000.0,-178000000.0,-86000000.0,-262000000.0,-82000000.0,0.0,310000000.0,2000000.0,250000000.0,250000000.0,250000000.0,0.0,0.0,0.056,1233000000.0,412000000.0,3316000000,0.342,2.115,13.198,13.213,3363000000,0.0,29.795,0.704,0.704,3907000000,8141000000,4474000000.0,4474000000.0,118000000.0,,,,,0.0,936000000.0,1.0,328245664,328245664,,13.63,11608000000,0,116000000.0,618000000,35.364,2346000000
54,PPG,ARQ,2008-03-31,2008-04-28,2008-03-31,2021-10-21,-378000000,15899000000,,6949000000,8950000000,,13.328,-61000000.0,310000000,310000000,2424000000.0,100000000.0,1.547,2.594,4444000000,805000000,3639000000,4444000000,0,0.0,0,0.032,0.0,215000000.0,215000000.0,0.058,215000000.0,215000000.0,149000000.0,0.305,0.305,0.305,4374000000,,4374000000,14540996225,12.0,9.004,-12000000.0,-0.037,1.0,1296000000.0,0.348,4573000000,66000000.0,10968000000,,1977000000,382000000,0,382000000,11346000000,4492000000,6854000000,10406996225,-228000000.0,-1571000000.0,0.0,-328000000.0,-85000000.0,-373000000.0,78000000.0,0.0,49000000.0,18000000.0,100000000.0,100000000.0,100000000.0,-13000000.0,0.0,0.027,1101000000.0,195000000.0,3003000000,0.0,2.379,14.064,14.093,3253000000,0.0,31.71,0.827,0.827,3433000000,7976000000,3720000000.0,3720000000.0,111000000.0,,,,,0.0,822000000.0,1.0,328192880,328192880,,11.335,11326000000,0,49000000.0,616000000,34.51,2457000000
55,PPG,ARQ,2007-12-31,2008-02-21,2007-12-31,2021-10-21,-582000000,12629000000,,7136000000,5493000000,,12.669,-108000000.0,2232000000,2232000000,1846000000.0,200000000.0,1.531,2.01,3020000000,1819000000,1201000000,3020000000,0,380000000.0,0,0.032,0.52,308000000.0,688000000.0,0.239,688000000.0,308000000.0,282000000.0,0.61,0.605,0.61,4151000000,,4151000000,11272605056,9.0,6.783,341000000.0,1.041,1.0,1028000000.0,0.358,2088000000,26000000.0,6668000000,,1368000000,360000000,0,360000000,8345000000,4661000000,3684000000,10484605056,299000000.0,-19000000.0,3000000.0,1646000000.0,-85000000.0,1570000000.0,-1721000000.0,0.0,449000000.0,1000000.0,200000000.0,200000000.0,200000000.0,-7000000.0,0.0,0.07,614000000.0,414000000.0,2150000000,0.852,2.526,12.571,12.623,2426000000,0.0,32.0,0.936,0.936,2398000000,7963000000,2874000000.0,2874000000.0,90000000.0,,,,,0.0,569000000.0,1.0,327643908,327643908,,8.772,10541000000,418000000,82000000.0,164000000,32.172,2475000000
56,PPG,ARQ,2007-09-30,2007-10-29,2007-09-30,2021-10-21,-596000000,10907000000,,5416000000,5491000000,,12.223,-61000000.0,227000000,227000000,1762000000.0,191000000.0,1.786,1.69,1359000000,178000000,1181000000,1359000000,0,0.0,0,0.027,0.26,316000000.0,316000000.0,0.112,316000000.0,316000000.0,294000000.0,0.58,0.575,0.58,4003000000,,4003000000,13262128555,11.0,8.121,257000000.0,0.785,1.0,1061000000.0,0.376,2091000000,22000000.0,6916000000,,1385000000,357000000,0,357000000,6764000000,3032000000,3732000000,12130128555,42000000.0,-40000000.0,-45000000.0,-40000000.0,-85000000.0,-170000000.0,-112000000.0,0.0,318000000.0,6000000.0,191000000.0,191000000.0,191000000.0,24000000.0,0.0,0.068,736000000.0,325000000.0,2111000000,0.448,3.03,15.335,15.433,2391000000,0.0,37.04,1.038,1.038,2497000000,7848000000,2823000000.0,2823000000.0,83000000.0,,,,,0.0,539000000.0,1.0,327487272,327487272,,8.62,8816000000,0,103000000.0,156000000,26.92,2384000000
57,PPG,ARQ,2007-06-30,2007-07-30,2007-06-30,2021-10-21,-832000000,10684000000,,4951000000,5733000000,,11.231,-90000000.0,197000000,197000000,2017000000.0,249000000.0,1.672,1.849,1367000000,216000000,1151000000,1367000000,0,0.0,0,0.025,0.25,396000000.0,396000000.0,0.125,396000000.0,396000000.0,373000000.0,0.755,0.75,0.755,3685000000,,3685000000,13857782144,13.0,9.531,237000000.0,0.722,1.0,1156000000.0,0.364,2103000000,23000000.0,6789000000,,1480000000,374000000,0,374000000,6815000000,2962000000,3853000000,12687782144,15000000.0,-24000000.0,-32000000.0,-96000000.0,-83000000.0,-201000000.0,-114000000.0,0.0,327000000.0,3000000.0,249000000.0,249000000.0,249000000.0,0.0,0.0,0.078,777000000.0,379000000.0,2145000000,0.331,3.443,18.388,18.502,2535000000,0.0,38.67,1.088,1.088,2583000000,7742000000,3173000000.0,3173000000.0,88000000.0,,,,,0.0,565000000.0,1.0,328104012,328104012,,9.671,8581000000,0,124000000.0,146000000,26.153,1989000000
58,PPG,ARQ,2007-03-31,2007-04-30,2007-03-31,2021-10-21,-923000000,10345000000,,4729000000,5616000000,,10.465,-94000000.0,182000000,182000000,1885000000.0,194000000.0,1.604,1.963,1464000000,306000000,1158000000,1464000000,0,0.0,0,0.026,0.0,284000000.0,284000000.0,0.097,284000000.0,284000000.0,262000000.0,0.59,0.585,0.59,3436000000,,3436000000,13363483711,12.0,9.116,-192000000.0,-0.585,1.0,1032000000.0,0.354,2092000000,22000000.0,6586000000,,1459000000,356000000,0,356000000,6744000000,2949000000,3795000000,12081483711,-273000000.0,-148000000.0,-6000000.0,163000000.0,-82000000.0,84000000.0,-260000000.0,0.0,-98000000.0,1000000.0,194000000.0,194000000.0,194000000.0,0.0,0.0,0.067,756000000.0,276000000.0,2078000000,0.0,3.516,16.757,16.878,2512000000,0.0,36.795,1.068,1.068,2434000000,7576000000,2917000000.0,2917000000.0,84000000.0,,,,,0.0,538000000.0,1.0,328345800,328345800,,8.884,8253000000,0,68000000.0,144000000,25.135,1780000000
59,PPG,ARQ,2006-12-31,2007-02-21,2006-12-31,2021-10-21,-985000000,10021000000,,4592000000,5429000000,,9.861,-139000000.0,455000000,455000000,1807000000.0,157000000.0,1.648,2.053,1295000000,140000000,1155000000,1295000000,0,380000000.0,0,0.028,0.49,257000000.0,637000000.0,0.23,637000000.0,257000000.0,237000000.0,0.475,0.47,0.475,3234000000,,3234000000,12034702417,11.0,8.288,316000000.0,0.964,1.0,966000000.0,0.348,1982000000,20000000.0,6092000000,,1390000000,352000000,0,352000000,6639000000,2787000000,3852000000,11194702417,139000000.0,-2000000.0,-83000000.0,-36000000.0,-79000000.0,-191000000.0,-132000000.0,0.0,455000000.0,7000000.0,157000000.0,157000000.0,157000000.0,0.0,0.0,0.057,593000000.0,373000000.0,2090000000,1.032,3.462,15.745,15.914,2496000000,0.0,34.135,1.014,1.014,2168000000,7453000000,2773000000.0,2773000000.0,87000000.0,,,,,0.0,525000000.0,1.0,327953784,327953784,,8.455,8039000000,394000000,80000000.0,136000000,24.513,1805000000
60,PPG,ARQ,2006-09-30,2006-10-31,2006-09-30,2021-10-21,-726000000,9773000000,,4547000000,5226000000,,10.538,-82000000.0,316000000,316000000,1791000000.0,90000000.0,1.651,1.769,1313000000,118000000,1195000000,1313000000,0,0.0,0,0.028,0.24,137000000.0,137000000.0,0.049,137000000.0,137000000.0,115000000.0,0.27,0.27,0.27,3483000000,,3483000000,12300925793,12.0,8.92,260000000.0,0.787,1.0,1011000000.0,0.361,1947000000,22000000.0,6069000000,,1377000000,336000000,0,336000000,6160000000,2754000000,3406000000,11303925793,-103000000.0,-262000000.0,4000000.0,-28000000.0,-80000000.0,-104000000.0,-341000000.0,0.0,342000000.0,0.0,90000000.0,90000000.0,90000000.0,0.0,0.0,0.032,894000000.0,117000000.0,2075000000,0.889,3.245,16.947,17.015,2412000000,0.0,34.2,1.05,1.05,2240000000,7375000000,2802000000.0,2802000000.0,78000000.0,,,,,0.0,500000000.0,1.0,330524146,330524146,,8.477,7826000000,0,25000000.0,156000000,23.678,1793000000
61,PPG,ARQ,2006-06-30,2006-08-01,2006-06-30,2021-10-21,-706000000,9502000000,,4517000000,4985000000,,10.525,-72000000.0,419000000,419000000,1747000000.0,280000000.0,1.712,1.696,1335000000,139000000,1196000000,1335000000,0,0.0,0,0.031,0.0,408000000.0,408000000.0,0.144,408000000.0,408000000.0,387000000.0,0.845,0.84,0.845,3477000000,,3477000000,11014732307,10.0,7.358,226000000.0,0.684,1.0,1077000000.0,0.381,1797000000,21000000.0,5983000000,,1273000000,341000000,0,341000000,5896000000,2638000000,3258000000,10098732307,3000000.0,-121000000.0,-27000000.0,-18000000.0,-79000000.0,-124000000.0,-182000000.0,0.0,298000000.0,11000000.0,280000000.0,280000000.0,280000000.0,0.0,0.0,0.099,651000000.0,426000000.0,1939000000,0.0,2.904,13.758,13.864,2364000000,0.0,30.57,0.961,0.961,2248000000,7364000000,2824000000.0,2824000000.0,78000000.0,,,,,0.0,495000000.0,1.0,330347802,330347802,,8.549,7705000000,0,107000000.0,122000000,23.324,1879000000
62,PPG,ARQ,2006-03-31,2006-05-10,2006-03-31,2021-10-21,-786000000,8918000000,,4174000000,4744000000,,9.702,-79000000.0,416000000,416000000,1691000000.0,184000000.0,1.781,1.735,1260000000,86000000,1174000000,1260000000,0,0.0,0,0.028,0.24,270000000.0,270000000.0,0.102,270000000.0,270000000.0,250000000.0,0.555,0.555,0.555,3214000000,,3214000000,12184799966,11.0,8.398,-44000000.0,-0.133,1.0,947000000.0,0.359,1665000000,20000000.0,5753000000,,1195000000,351000000,0,351000000,5577000000,2344000000,3233000000,11340799966,-50000000.0,-17000000.0,8000000.0,-17000000.0,-78000000.0,-82000000.0,-7000000.0,0.0,35000000.0,4000000.0,184000000.0,184000000.0,184000000.0,0.0,0.0,0.07,658000000.0,289000000.0,1778000000,0.432,3.529,16.556,16.823,2283000000,0.0,34.235,1.096,1.096,2038000000,7163000000,2638000000.0,2638000000.0,75000000.0,,,,,0.0,460000000.0,1.0,331263326,331263326,,7.963,7253000000,0,66000000.0,92000000,21.895,1830000000
63,PPG,ARQ,2005-12-31,2006-02-16,2005-12-31,2021-10-21,-819000000,8681000000,,4019000000,4662000000,,9.233,-94000000.0,466000000,466000000,1651000000.0,113000000.0,1.711,1.808,1270000000,101000000,1169000000,1270000000,0,372000000.0,0,0.039,0.47,192000000.0,564000000.0,0.225,564000000.0,192000000.0,173000000.0,0.34,0.34,0.34,3053000000,,3053000000,10753739759,11.0,8.079,255000000.0,0.771,1.0,854000000.0,0.341,1654000000,19000000.0,5482000000,,1119000000,311000000,0,311000000,5520000000,2349000000,3171000000,9949739759,-23000000.0,-58000000.0,-106000000.0,24000000.0,-78000000.0,-155000000.0,-213000000.0,0.0,349000000.0,-4000000.0,113000000.0,113000000.0,113000000.0,0.0,0.0,0.045,826000000.0,28000000.0,1776000000,1.382,3.259,16.694,17.145,2304000000,0.0,30.09,0.975,0.975,1871000000,7057000000,2505000000.0,2505000000.0,79000000.0,,,,,0.0,423000000.0,1.0,330665994,330665994,,7.576,7027000000,345000000,60000000.0,90000000,21.251,1670000000
64,PPG,ARQ,2005-09-30,2005-10-31,2005-09-30,2021-10-21,-613000000,8794000000,,4073000000,4721000000,,9.932,-64000000.0,489000000,489000000,1614000000.0,157000000.0,1.744,1.611,1253000000,72000000,1181000000,1253000000,0,0.0,0,0.031,0.235,255000000.0,255000000.0,0.1,255000000.0,255000000.0,234000000.0,0.465,0.46,0.465,3318000000,,3318000000,10780637976,10.0,7.539,382000000.0,1.144,1.0,933000000.0,0.366,1650000000,21000000.0,5573000000,,1116000000,332000000,0,332000000,5346000000,2335000000,3011000000,10016637976,19000000.0,-8000000.0,-187000000.0,-95000000.0,-79000000.0,-361000000.0,-67000000.0,0.0,446000000.0,1000000.0,157000000.0,157000000.0,157000000.0,0.0,0.0,0.062,610000000.0,323000000.0,1789000000,0.505,3.019,15.04,15.377,2336000000,0.0,29.985,0.991,0.991,1968000000,7021000000,2547000000.0,2547000000.0,77000000.0,,,,,0.0,437000000.0,1.0,334054960,334054960,,7.624,7144000000,0,77000000.0,128000000,21.386,1738000000
65,PPG,ARQ,2005-06-30,2005-08-01,2005-06-30,2021-10-21,-620000000,8790000000,,4057000000,4733000000,,10.044,-61000000.0,470000000,470000000,1650000000.0,231000000.0,1.817,1.54,1352000000,164000000,1188000000,1352000000,0,0.0,0,0.028,0.235,362000000.0,362000000.0,0.136,362000000.0,362000000.0,342000000.0,0.675,0.67,0.675,3413000000,,3413000000,11938777208,11.0,8.105,69000000.0,0.203,1.0,1006000000.0,0.379,1654000000,20000000.0,5785000000,,1105000000,322000000,0,322000000,5256000000,2233000000,3023000000,11056777208,-170000000.0,-25000000.0,-189000000.0,29000000.0,-81000000.0,-241000000.0,-39000000.0,38000000.0,130000000.0,-20000000.0,231000000.0,231000000.0,231000000.0,0.0,0.0,0.087,633000000.0,373000000.0,1590000000,0.348,3.24,15.728,15.873,2356000000,0.0,32.54,1.109,1.109,1987000000,6944000000,2656000000.0,2656000000.0,76000000.0,,,,,0.0,461000000.0,1.0,339790326,339790326,,7.817,7136000000,0,111000000.0,131000000,21.001,1824000000
66,PPG,ARQ,2005-03-31,2005-05-02,2005-03-31,2021-10-21,-514000000,9022000000,,4209000000,4813000000,,10.337,-69000000.0,677000000,677000000,1558000000.0,95000000.0,1.813,1.51,1298000000,161000000,1137000000,1298000000,0,0.0,0,0.026,0.0,150000000.0,150000000.0,0.06,150000000.0,150000000.0,129000000.0,0.275,0.275,0.275,3549000000,,3549000000,12293983564,12.0,8.67,71000000.0,0.207,1.0,935000000.0,0.375,1680000000,21000000.0,5642000000,,1130000000,312000000,0,312000000,5358000000,2321000000,3037000000,11672983564,-19000000.0,0.0,13000000.0,-40000000.0,-78000000.0,-100000000.0,-46000000.0,12000000.0,140000000.0,-13000000.0,95000000.0,95000000.0,95000000.0,0.0,0.0,0.038,631000000.0,304000000.0,1751000000,0.0,3.289,17.821,17.801,2412000000,0.0,34.0,1.198,1.198,1920000000,6793000000,2493000000.0,2493000000.0,77000000.0,,,,,0.0,450000000.0,1.0,343323046,343323046,,7.261,7342000000,0,34000000.0,140000000,21.385,1888000000
67,PPG,ARQ,2004-12-31,2005-02-17,2004-12-31,2021-10-21,-435000000,8932000000,,4054000000,4878000000,,10.373,-87000000.0,709000000,709000000,1526000000.0,183000000.0,1.825,1.474,1350000000,166000000,1184000000,1350000000,0,388000000.0,0,0.025,0.45,275000000.0,663000000.0,0.275,663000000.0,275000000.0,255000000.0,0.535,0.53,0.535,3572000000,,3572000000,12920621633,12.0,8.712,219000000.0,0.636,1.0,885000000.0,0.367,1713000000,20000000.0,5639000000,,1076000000,298000000,0,298000000,5264000000,2221000000,3043000000,12279621633,148000000.0,0.0,-15000000.0,-10000000.0,-77000000.0,-97000000.0,-92000000.0,0.0,306000000.0,31000000.0,183000000.0,183000000.0,183000000.0,0.0,0.0,0.076,600000000.0,285000000.0,1651000000,0.841,3.438,17.979,17.92,2471000000,0.0,35.66,1.291,1.291,1797000000,6776000000,2411000000.0,2411000000.0,79000000.0,,,,,0.0,444000000.0,1.0,344352822,344352822,,7.002,7219000000,306000000,72000000.0,145000000,20.964,1833000000
68,PPG,ARQ,2004-09-30,2004-11-01,2004-09-30,2021-10-21,-647000000,8599000000,,3831000000,4768000000,,9.468,-47000000.0,561000000,561000000,1516000000.0,194000000.0,1.724,1.607,1365000000,165000000,1200000000,1365000000,0,0.0,0,0.028,0.225,298000000.0,298000000.0,0.124,298000000.0,298000000.0,276000000.0,0.565,0.56,0.565,3255000000,,3255000000,11745016692,12.0,8.312,314000000.0,0.913,1.0,893000000.0,0.371,1660000000,22000000.0,5521000000,,1010000000,281000000,0,281000000,5230000000,2222000000,3008000000,10941016692,-22000000.0,-2000000.0,7000000.0,-293000000.0,-77000000.0,-363000000.0,-32000000.0,0.0,361000000.0,12000000.0,194000000.0,194000000.0,194000000.0,0.0,0.0,0.081,577000000.0,316000000.0,1663000000,0.398,3.361,17.819,17.73,2420000000,0.0,31.825,1.179,1.179,1809000000,6670000000,2409000000.0,2409000000.0,74000000.0,,,,,0.0,422000000.0,1.0,343786856,343786856,,7.007,6939000000,0,82000000.0,102000000,20.184,1609000000
69,PPG,ARQ,2004-06-30,2004-07-26,2004-06-30,2021-10-21,-707000000,8648000000,,3890000000,4758000000,,8.908,-57000000.0,583000000,583000000,1522000000.0,183000000.0,1.631,1.788,1643000000,348000000,1295000000,1643000000,0,0.0,0,0.03,0.225,307000000.0,307000000.0,0.126,307000000.0,307000000.0,282000000.0,0.535,0.53,0.535,3060000000,,3060000000,11013731971,11.0,8.051,164000000.0,0.477,1.0,907000000.0,0.373,1651000000,25000000.0,5672000000,,1025000000,278000000,0,278000000,5472000000,2385000000,3087000000,9953731971,117000000.0,-3000000.0,15000000.0,-5000000.0,-78000000.0,-68000000.0,-33000000.0,0.0,221000000.0,-3000000.0,183000000.0,183000000.0,183000000.0,0.0,0.0,0.075,584000000.0,323000000.0,1641000000,0.421,3.253,17.711,17.614,2453000000,0.0,28.975,1.097,1.097,1845000000,6545000000,2429000000.0,2429000000.0,74000000.0,,,,,0.0,424000000.0,1.0,343528282,343528282,,7.071,6997000000,0,99000000.0,97000000,20.368,1505000000
70,PPG,ARQ,2004-03-31,2004-05-03,2004-03-31,2021-10-21,-668000000,8607000000,,3705000000,4902000000,,8.661,-53000000.0,466000000,466000000,1441000000.0,115000000.0,1.653,1.857,1676000000,347000000,1329000000,1676000000,0,0.0,0,0.029,0.0,207000000.0,207000000.0,0.091,207000000.0,207000000.0,184000000.0,0.335,0.335,0.335,2972000000,,2972000000,11362180617,12.0,8.517,77000000.0,0.224,1.0,823000000.0,0.364,1674000000,23000000.0,5902000000,,1044000000,278000000,0,278000000,5519000000,2241000000,3278000000,10152180617,-33000000.0,-62000000.0,14000000.0,-4000000.0,-75000000.0,-57000000.0,-103000000.0,0.0,130000000.0,-3000000.0,115000000.0,115000000.0,115000000.0,0.0,0.0,0.051,605000000.0,218000000.0,1594000000,0.0,3.416,19.119,18.965,2512000000,0.0,29.585,1.134,1.134,1794000000,6439000000,2264000000.0,2264000000.0,76000000.0,,,,,0.0,427000000.0,1.0,343152970,343152970,,6.598,6933000000,0,69000000.0,99000000,20.204,1464000000
71,PPG,ARQ,2003-12-31,2004-02-20,2003-12-31,2021-10-21,-642000000,8424000000,,3537000000,4887000000,,8.5,-71000000.0,499000000,499000000,1364000000.0,122000000.0,1.654,1.847,1666000000,327000000,1339000000,1666000000,0,394000000.0,0,0.03,0.44,207000000.0,601000000.0,0.276,601000000.0,207000000.0,181000000.0,0.36,0.355,0.36,2911000000,,2911000000,11250806899,13.0,8.735,282000000.0,0.823,1.0,811000000.0,0.373,1652000000,26000000.0,5800000000,,997000000,265000000,0,265000000,5376000000,2139000000,3237000000,10083806899,216000000.0,-3000000.0,50000000.0,-69000000.0,-75000000.0,-87000000.0,-62000000.0,0.0,353000000.0,12000000.0,122000000.0,122000000.0,122000000.0,0.0,0.0,0.056,584000000.0,227000000.0,1504000000,1.222,3.464,20.413,20.237,2566000000,0.0,29.445,1.152,1.152,1631000000,6399000000,2175000000.0,2175000000.0,75000000.0,,,,,0.0,417000000.0,1.0,342462452,342462452,,6.351,6772000000,254000000,59000000.0,88000000,19.774,1398000000
72,PPG,ARQ,2003-09-30,2003-11-03,2003-09-30,2021-10-21,-921000000,8304000000,,3371000000,4933000000,,7.421,-41000000.0,283000000,283000000,1370000000.0,142000000.0,1.508,2.239,1741000000,385000000,1356000000,1741000000,0,0.0,0,0.03,0.215,253000000.0,253000000.0,0.115,253000000.0,253000000.0,228000000.0,0.415,0.415,0.415,2522000000,,2522000000,11352798841,13.0,8.975,317000000.0,0.933,1.0,836000000.0,0.379,1607000000,25000000.0,5919000000,,990000000,267000000,0,267000000,5646000000,2236000000,3410000000,9894798841,130000000.0,0.0,7000000.0,-155000000.0,-73000000.0,-218000000.0,-12000000.0,0.0,358000000.0,2000000.0,142000000.0,142000000.0,142000000.0,0.0,0.0,0.064,574000000.0,262000000.0,1560000000,0.518,3.923,21.233,21.175,2543000000,0.0,29.115,1.154,1.154,1689000000,6350000000,2206000000.0,2206000000.0,71000000.0,,,,,0.0,395000000.0,1.0,339852270,339852270,,6.491,6697000000,0,86000000.0,75000000,19.706,1135000000
73,PPG,ARQ,2003-06-30,2003-07-28,2003-06-30,2021-10-21,-933000000,8326000000,,3323000000,5003000000,,7.158,-44000000.0,153000000,153000000,1445000000.0,152000000.0,1.621,2.363,1918000000,234000000,1684000000,1918000000,0,0.0,0,0.031,0.215,273000000.0,273000000.0,0.118,273000000.0,273000000.0,245000000.0,0.45,0.445,0.45,2430000000,,2430000000,11147782749,13.0,8.696,255000000.0,0.751,1.0,859000000.0,0.373,1610000000,28000000.0,6431000000,,1004000000,276000000,0,276000000,5741000000,2050000000,3691000000,9382782749,76000000.0,0.0,1000000.0,-129000000.0,-73000000.0,-194000000.0,-32000000.0,0.0,299000000.0,3000000.0,152000000.0,152000000.0,152000000.0,0.0,0.0,0.066,575000000.0,284000000.0,1527000000,0.478,3.861,19.879,19.814,2610000000,0.0,27.64,1.113,1.113,1773000000,6282000000,2304000000.0,2304000000.0,72000000.0,,,,,0.0,389000000.0,1.0,339463920,339463920,,6.787,6716000000,0,93000000.0,71000000,19.784,1273000000
74,PPG,ARQ,2003-03-31,2003-05-05,2003-03-31,2021-10-21,-1039000000,8051000000,,3095000000,4956000000,,6.587,-61000000.0,77000000,77000000,1343000000.0,78000000.0,1.592,2.536,2031000000,332000000,1699000000,2031000000,0,0.0,0,0.035,0.0,161000000.0,161000000.0,0.078,161000000.0,161000000.0,133000000.0,0.23,0.23,0.23,2236000000,,2236000000,10215957576,90.0,19.992,52000000.0,0.153,1.0,728000000.0,0.352,1574000000,28000000.0,6487000000,,1004000000,278000000,0,278000000,5670000000,1944000000,3726000000,8261957576,-40000000.0,0.0,3000000.0,-32000000.0,-73000000.0,-94000000.0,-60000000.0,0.0,113000000.0,1000000.0,78000000.0,78000000.0,78000000.0,0.0,0.0,0.038,551000000.0,177000000.0,1429000000,0.0,3.695,-330.478,-324.533,2611000000,0.0,24.34,1.0,1.0,1649000000,6203000000,2071000000.0,2071000000.0,72000000.0,,,,,0.0,377000000.0,1.0,339439506,339439506,,6.101,6477000000,0,55000000.0,66000000,19.081,1151000000
75,PPG,ARQ,2002-12-31,2003-02-21,2002-12-31,2021-10-21,-1101000000,7863000000,,2945000000,4918000000,,6.342,-102000000.0,117000000,117000000,1261000000.0,94000000.0,1.534,2.596,2051000000,352000000,1699000000,2051000000,0,398000000.0,0,0.035,0.43,180000000.0,578000000.0,0.29,578000000.0,180000000.0,151000000.0,0.28,0.275,0.28,2150000000,,2150000000,10055360308,193.0,22.345,178000000.0,0.525,1.0,729000000.0,0.366,1561000000,29000000.0,6316000000,,942000000,262000000,0,262000000,5582000000,1920000000,3662000000,8121360308,-46000000.0,-10000000.0,1000000.0,-158000000.0,-72000000.0,-224000000.0,-104000000.0,0.0,280000000.0,2000000.0,94000000.0,94000000.0,94000000.0,0.0,0.0,0.047,522000000.0,207000000.0,1378000000,1.536,3.777,-117.701,-116.854,2632000000,0.0,23.955,1.007,1.007,1486000000,6197000000,1990000000.0,1990000000.0,71000000.0,,,,,0.0,366000000.0,1.0,339025686,339025686,,5.87,6302000000,219000000,57000000.0,64000000,18.589,1025000000
76,PPG,ARQ,2002-09-30,2002-11-06,2002-09-30,2021-10-21,-448000000,8582000000,,3050000000,5532000000,,8.183,-45000000.0,163000000,163000000,1291000000.0,148000000.0,1.475,2.047,2201000000,494000000,1707000000,2201000000,0,0.0,0,0.033,0.0,270000000.0,270000000.0,0.131,270000000.0,270000000.0,237000000.0,0.435,0.435,0.435,2773000000,,2773000000,10540237361,285.0,21.777,186000000.0,0.549,1.0,777000000.0,0.376,1532000000,33000000.0,7020000000,,957000000,252000000,0,252000000,5675000000,2068000000,3607000000,8502237361,27000000.0,-3000000.0,11000000.0,-132000000.0,-73000000.0,-190000000.0,-14000000.0,0.0,231000000.0,0.0,148000000.0,148000000.0,148000000.0,0.0,0.0,0.072,495000000.0,282000000.0,1392000000,0.0,3.066,-106.278,-104.542,2606000000,0.0,25.09,1.065,1.065,1559000000,6174000000,2068000000.0,2068000000.0,68000000.0,,,,,0.0,352000000.0,1.0,338869564,338869564,,6.103,7050000000,215000000,89000000.0,346000000,20.804,982000000
77,PPG,ARQ,2002-06-30,2002-08-12,2002-06-30,2021-10-21,-405000000,8753000000,,3094000000,5659000000,,8.045,-44000000.0,136000000,136000000,1325000000.0,-345000000.0,1.379,2.163,2317000000,627000000,1690000000,2317000000,0,0.0,0,0.029,0.415,-498000000.0,-498000000.0,-0.233,-498000000.0,-498000000.0,-531000000.0,-1.02,-1.015,-1.02,2725000000,,2725000000,11927410867,-284.0,29.45,269000000.0,0.794,1.0,809000000.0,0.379,1549000000,33000000.0,7141000000,,962000000,294000000,0,294000000,5894000000,2244000000,3650000000,9746410867,64000000.0,0.0,15000000.0,-163000000.0,-71000000.0,-213000000.0,-39000000.0,0.0,313000000.0,3000000.0,-345000000.0,-345000000.0,-345000000.0,0.0,0.0,-0.162,1296000000.0,-487000000.0,1411000000,-0.407,3.577,-72.196,-72.848,2674000000,0.0,28.775,1.231,1.231,1640000000,6099000000,2134000000.0,2134000000.0,68000000.0,,,,,0.0,359000000.0,1.0,338711064,338711064,,6.3,7204000000,222000000,-186000000.0,349000000,21.269,850000000
78,PPG,ARQ,2002-03-31,2002-05-03,2002-03-31,2021-10-21,-485000000,8487000000,,2841000000,5646000000,,8.997,-47000000.0,72000000,72000000,1189000000.0,34000000.0,1.374,1.752,2414000000,735000000,1679000000,2414000000,0,0.0,0,0.031,0.0,100000000.0,100000000.0,0.053,100000000.0,100000000.0,67000000.0,0.1,0.1,0.1,3037000000,,3037000000,11433935970,15.0,9.544,1000000.0,0.003,1.0,686000000.0,0.366,1506000000,33000000.0,7255000000,,948000000,306000000,0,306000000,5322000000,2068000000,3254000000,9091935970,-36000000.0,-9000000.0,5000000.0,30000000.0,-71000000.0,-28000000.0,-55000000.0,0.0,48000000.0,-1000000.0,34000000.0,34000000.0,34000000.0,0.0,0.0,0.018,588000000.0,98000000.0,1333000000,0.0,2.994,24.909,24.825,2695000000,0.0,26.935,1.144,1.144,1533000000,6514000000,1875000000.0,1875000000.0,66000000.0,,,,,0.0,342000000.0,1.0,337550992,337550992,,5.555,6981000000,0,33000000.0,523000000,20.681,773000000
79,PPG,ARQ,2001-12-31,2002-02-22,2001-12-31,2021-10-21,-460000000,8452000000,,2703000000,5749000000,,9.138,-68000000.0,108000000,108000000,1210000000.0,83000000.0,1.383,1.705,2395000000,696000000,1699000000,2395000000,0,447000000.0,0,0.033,0.42,165000000.0,612000000.0,0.321,612000000.0,165000000.0,133000000.0,0.245,0.245,0.245,3080000000,,3080000000,10781095708,13.0,8.625,226000000.0,0.67,1.0,697000000.0,0.365,1542000000,32000000.0,7242000000,,904000000,305000000,0,305000000,5250000000,1955000000,3295000000,8494095708,-51000000.0,-2000000.0,1000000.0,-246000000.0,-71000000.0,-307000000.0,-37000000.0,0.0,294000000.0,-1000000.0,83000000.0,83000000.0,83000000.0,0.0,0.0,0.044,518000000.0,179000000.0,1259000000,1.714,2.758,21.949,21.913,2752000000,0.0,25.2,1.04,1.04,1416000000,6551000000,1907000000.0,1907000000.0,66000000.0,,,,,0.0,354000000.0,1.0,337067290,337067290,,5.658,6910000000,155000000,50000000.0,552000000,20.5,748000000
80,PPG,ARQ,2001-09-30,2001-10-26,2001-09-30,2021-10-21,-412000000,8828000000,,2984000000,5844000000,,9.215,-97000000.0,159000000,159000000,1261000000.0,93000000.0,1.291,1.804,2664000000,944000000,1720000000,2664000000,0,0.0,0,0.032,0.21,191000000.0,191000000.0,0.096,191000000.0,191000000.0,148000000.0,0.28,0.275,0.28,3103000000,,3103000000,11132464340,13.0,8.603,278000000.0,0.826,1.0,738000000.0,0.369,1574000000,43000000.0,7447000000,,1006000000,302000000,0,302000000,5598000000,2312000000,3286000000,8627464340,41000000.0,0.0,-1000000.0,-187000000.0,-71000000.0,-252000000.0,-84000000.0,0.0,375000000.0,2000000.0,93000000.0,93000000.0,93000000.0,0.0,0.0,0.047,527000000.0,211000000.0,1368000000,0.75,2.78,20.064,20.016,2791000000,0.0,25.62,1.013,1.013,1534000000,6538000000,1999000000.0,1999000000.0,66000000.0,,,,,0.0,348000000.0,1.0,336747242,336747242,,5.936,7254000000,0,55000000.0,555000000,21.541,672000000
81,PPG,ARQ,2001-06-30,2001-07-27,2001-06-30,2021-10-21,-424000000,8952000000,,3136000000,5816000000,,9.099,-69000000.0,118000000,118000000,1342000000.0,155000000.0,1.252,1.879,2819000000,1116000000,1703000000,2819000000,0,0.0,0,0.03,0.21,295000000.0,295000000.0,0.136,295000000.0,295000000.0,249000000.0,0.46,0.46,0.46,3062000000,,3062000000,11788573856,13.0,8.493,272000000.0,0.808,1.0,822000000.0,0.38,1570000000,46000000.0,7578000000,,1076000000,302000000,0,302000000,5755000000,2505000000,3250000000,9087573856,40000000.0,0.0,8000000.0,-160000000.0,-70000000.0,-243000000.0,-57000000.0,0.0,341000000.0,-1000000.0,155000000.0,155000000.0,155000000.0,0.0,0.0,0.072,521000000.0,301000000.0,1389000000,0.457,2.968,18.66,18.819,2801000000,0.0,27.005,1.057,1.057,1637000000,6515000000,2164000000.0,2164000000.0,67000000.0,,,,,0.0,342000000.0,1.0,336514492,336514492,,6.431,7382000000,0,94000000.0,539000000,21.937,631000000
82,PPG,ARQ,2001-03-31,2001-05-03,2001-03-31,2021-10-21,-398000000,9061000000,,3161000000,5900000000,,8.949,-57000000.0,78000000,78000000,1324000000.0,56000000.0,1.189,1.963,2985000000,1284000000,1701000000,2985000000,0,0.0,0,0.03,0.0,152000000.0,152000000.0,0.072,152000000.0,152000000.0,104000000.0,0.165,0.165,0.165,3014000000,,3014000000,12008882713,12.0,8.147,-7000000.0,-0.021,1.0,775000000.0,0.369,1595000000,48000000.0,7715000000,,1141000000,331000000,0,331000000,5916000000,2658000000,3258000000,9101882713,-33000000.0,-8000000.0,0.0,46000000.0,-71000000.0,-14000000.0,-67000000.0,0.0,50000000.0,-2000000.0,56000000.0,56000000.0,56000000.0,0.0,0.0,0.027,631000000.0,144000000.0,1374000000,0.0,3.02,16.95,17.268,2849000000,0.0,27.025,1.053,1.053,1617000000,6430000000,2099000000.0,2099000000.0,67000000.0,,,,,0.0,351000000.0,1.0,336794920,336794920,,6.232,7466000000,0,48000000.0,547000000,22.168,503000000
83,PPG,ARQ,2000-12-31,2001-02-16,2000-12-31,2021-10-21,-311000000,9125000000,,3093000000,6032000000,,9.206,-228000000.0,111000000,111000000,1482000000.0,126000000.0,1.216,1.905,2971000000,1161000000,1810000000,2971000000,0,447000000.0,0,0.033,0.41,209000000.0,656000000.0,0.291,656000000.0,209000000.0,162000000.0,0.375,0.375,0.375,3097000000,,3097000000,11202708642,10.0,6.945,30000000.0,0.089,1.0,772000000.0,0.343,1648000000,47000000.0,7794000000,,1121000000,320000000,0,320000000,5900000000,2543000000,3357000000,8342708642,-24000000.0,-1000000.0,-125000000.0,104000000.0,-68000000.0,-76000000.0,-206000000.0,0.0,258000000.0,0.0,126000000.0,126000000.0,126000000.0,0.0,0.0,0.056,548000000.0,224000000.0,1382000000,1.093,2.694,13.456,13.778,2941000000,0.0,24.8,0.967,0.967,1563000000,6444000000,2254000000.0,2254000000.0,70000000.0,,,,,0.0,365000000.0,1.0,336399542,336399542,,6.7,7477000000,155000000,36000000.0,543000000,22.227,550000000
84,PPG,ARQ,2000-09-30,2000-11-03,2000-09-30,2021-10-21,-325000000,9029000000,,3143000000,5886000000,,9.301,-101000000.0,135000000,135000000,1271000000.0,150000000.0,1.278,1.834,2844000000,1024000000,1820000000,2844000000,0,0.0,0,0.035,0.2,285000000.0,285000000.0,0.137,285000000.0,285000000.0,242000000.0,0.435,0.43,0.435,3139000000,,3139000000,10377133048,8.0,6.155,148000000.0,0.439,1.0,807000000.0,0.388,1638000000,43000000.0,7640000000,,1070000000,232000000,0,232000000,5756000000,2460000000,3296000000,7668133048,-9000000.0,-5000000.0,-121000000.0,36000000.0,-69000000.0,-146000000.0,-112000000.0,0.0,249000000.0,0.0,150000000.0,150000000.0,150000000.0,0.0,0.0,0.072,519000000.0,288000000.0,1436000000,0.46,2.443,11.689,12.021,2900000000,0.0,22.72,0.91,0.91,1652000000,6385000000,2078000000.0,2078000000.0,72000000.0,,,,,0.0,329000000.0,1.0,337505856,337505856,,6.157,7391000000,0,92000000.0,480000000,21.899,683000000
85,PPG,ARQ,2000-06-30,2000-07-28,2000-06-30,2021-10-21,-270000000,9101000000,,3191000000,5910000000,,9.273,-114000000.0,144000000,144000000,1327000000.0,205000000.0,1.286,1.789,2842000000,1018000000,1824000000,2842000000,0,0.0,0,0.038,0.2,381000000.0,381000000.0,0.172,381000000.0,381000000.0,337000000.0,0.59,0.585,0.59,3226000000,,3226000000,9775592884,8.0,6.064,159000000.0,0.457,1.0,883000000.0,0.4,1696000000,44000000.0,7622000000,,1067000000,234000000,0,234000000,5770000000,2481000000,3289000000,7077592884,-1000000.0,-3000000.0,1000000.0,-87000000.0,-69000000.0,-169000000.0,-105000000.0,0.0,273000000.0,0.0,205000000.0,205000000.0,205000000.0,0.0,0.0,0.093,544000000.0,339000000.0,1463000000,0.339,2.194,11.699,11.693,2920000000,0.0,20.345,0.852,0.852,1724000000,6303000000,2210000000.0,2210000000.0,70000000.0,,,,,0.0,343000000.0,1.0,347878736,347878736,,6.353,7405000000,0,132000000.0,461000000,21.286,710000000
86,PPG,ARQ,2000-03-31,2000-05-05,2000-03-31,2021-10-21,-237000000,9072000000,,3177000000,5895000000,,9.007,-118000000.0,145000000,145000000,1254000000.0,139000000.0,1.267,1.859,2930000000,1105000000,1825000000,2930000000,0,0.0,0,0.021,0.0,291000000.0,291000000.0,0.139,291000000.0,291000000.0,248000000.0,0.4,0.395,0.4,3137000000,,3137000000,12385706358,11.0,7.94,-28000000.0,-0.08,1.0,833000000.0,0.399,1722000000,43000000.0,7627000000,,1067000000,227000000,0,227000000,5833000000,2508000000,3325000000,9600706358,-13000000.0,-106000000.0,2000000.0,168000000.0,-70000000.0,113000000.0,-213000000.0,0.0,90000000.0,-3000000.0,139000000.0,139000000.0,139000000.0,0.0,0.0,0.067,563000000.0,270000000.0,1403000000,0.0,3.06,16.44,16.408,2918000000,0.0,27.565,1.194,1.194,1713000000,6168000000,2087000000.0,2087000000.0,70000000.0,,,,,0.0,327000000.0,1.0,348293356,348293356,,5.992,7350000000,0,109000000.0,490000000,21.103,669000000
87,PPG,ARQ,1999-12-31,2000-02-18,1999-12-31,2021-10-21,-178000000,8914000000,,3062000000,5852000000,,8.923,-2000000.0,158000000,158000000,1245000000.0,162000000.0,1.284,1.838,2790000000,954000000,1836000000,2790000000,0,419000000.0,0,0.03,0.2,310000000.0,729000000.0,0.355,729000000.0,310000000.0,267000000.0,0.465,0.46,0.465,3106000000,,3106000000,11518316761,11.0,7.694,182000000.0,0.523,1.0,808000000.0,0.394,1662000000,43000000.0,7500000000,,1016000000,261000000,0,261000000,5710000000,2384000000,3326000000,8886316761,-6000000.0,-53000000.0,1000000.0,70000000.0,-66000000.0,14000000.0,-205000000.0,0.0,184000000.0,1000000.0,162000000.0,162000000.0,162000000.0,0.0,0.0,0.079,398000000.0,410000000.0,1430000000,0.43,2.861,15.645,15.615,2933000000,0.0,25.53,1.146,1.146,1594000000,6098000000,2053000000.0,2053000000.0,78000000.0,,,,,0.0,322000000.0,1.0,348073512,348073512,,5.898,7252000000,165000000,105000000.0,520000000,20.835,678000000
88,PPG,ARQ,1999-09-30,1999-11-09,1999-09-30,2021-10-21,-176000000,8750000000,,3141000000,5609000000,,8.634,-130000000.0,164000000,164000000,1206000000.0,99000000.0,1.371,1.882,2721000000,872000000,1849000000,2721000000,0,0.0,0,0.026,0.38,211000000.0,211000000.0,0.108,211000000.0,211000000.0,176000000.0,0.285,0.28,0.285,3001000000,,3001000000,12757072039,12.0,8.959,199000000.0,0.573,1.0,748000000.0,0.383,911000000,35000000.0,8105000000,,1020000000,256000000,0,256000000,5648000000,2291000000,3357000000,10200072039,68000000.0,-1177000000.0,2000000.0,952000000.0,-66000000.0,894000000.0,-1155000000.0,-16000000.0,329000000.0,0.0,99000000.0,99000000.0,99000000.0,0.0,0.0,0.051,553000000.0,195000000.0,1379000000,1.333,3.399,17.958,18.058,2861000000,0.0,29.345,1.361,1.361,1592000000,6001000000,1954000000.0,1954000000.0,72000000.0,,,,,0.0,315000000.0,1.0,347591482,347591482,,5.622,7839000000,0,77000000.0,535000000,22.552,850000000
89,PPG,ARQ,1999-06-30,1999-07-27,1999-06-30,2021-10-21,-201000000,7513000000,,2779000000,4734000000,,8.453,-86000000.0,96000000,96000000,1165000000.0,184000000.0,1.397,1.529,1762000000,711000000,1051000000,1762000000,0,0.0,0,0.025,0.19,329000000.0,329000000.0,0.169,329000000.0,329000000.0,300000000.0,0.53,0.525,0.53,2935000000,,2935000000,12115633631,10.0,7.516,178000000.0,0.513,1.0,782000000.0,0.402,571000000,29000000.0,6619000000,,915000000,262000000,0,262000000,4487000000,1989000000,2498000000,10449633631,14000000.0,-24000000.0,3000000.0,-76000000.0,-66000000.0,-152000000.0,-98000000.0,4000000.0,264000000.0,0.0,184000000.0,184000000.0,184000000.0,0.0,0.0,0.095,492000000.0,290000000.0,1242000000,0.358,3.56,14.574,14.752,2876000000,0.0,30.095,1.423,1.423,1500000000,5968000000,1947000000.0,1947000000.0,67000000.0,,,,,0.0,307000000.0,1.0,347221586,347221586,,5.607,6942000000,0,116000000.0,487000000,19.993,790000000
90,PPG,ARQ,1999-03-31,1999-04-30,1999-03-31,2021-10-21,-230000000,7435000000,,2725000000,4710000000,,8.051,-120000000.0,82000000,82000000,1103000000.0,123000000.0,1.333,1.624,1843000000,777000000,1066000000,1843000000,0,0.0,0,0.022,0.0,228000000.0,228000000.0,0.126,228000000.0,228000000.0,202000000.0,0.355,0.35,0.355,2797000000,,2797000000,13041502188,10.0,7.952,5000000.0,0.014,1.0,700000000.0,0.388,586000000,26000000.0,6565000000,,948000000,247000000,0,247000000,4541000000,2045000000,2496000000,11280502188,-46000000.0,-89000000.0,-79000000.0,149000000.0,-66000000.0,17000000.0,-186000000.0,12000000.0,125000000.0,-2000000.0,123000000.0,123000000.0,123000000.0,0.0,0.0,0.068,489000000.0,211000000.0,1202000000,0.0,4.033,15.411,15.648,2874000000,0.0,32.47,1.524,1.524,1438000000,5849000000,1803000000.0,1803000000.0,67000000.0,,,,,0.0,286000000.0,1.0,347413064,347413064,,5.19,6849000000,0,79000000.0,500000000,19.714,680000000
91,PPG,ARQ,1998-12-31,1999-02-19,1998-12-31,2021-10-21,-153000000,7387000000,,2660000000,4727000000,,8.266,-155000000.0,128000000,128000000,1063000000.0,162000000.0,1.391,1.535,1718000000,637000000,1081000000,1718000000,0,383000000.0,0,0.029,0.37,273000000.0,656000000.0,0.367,656000000.0,273000000.0,248000000.0,0.455,0.455,0.455,2880000000,,2880000000,10463737659,8.0,5.945,72000000.0,0.207,1.0,726000000.0,0.406,576000000,25000000.0,6489000000,,917000000,263000000,0,263000000,4420000000,1912000000,2508000000,8873737659,-136000000.0,-192000000.0,-125000000.0,172000000.0,-64000000.0,-9000000.0,-355000000.0,-15000000.0,227000000.0,1000000.0,162000000.0,162000000.0,162000000.0,0.0,0.0,0.091,448000000.0,278000000.0,1264000000,0.813,3.081,11.078,11.27,2905000000,0.0,25.47,1.182,1.182,1366000000,5791000000,1789000000.0,1789000000.0,69000000.0,,,,,0.0,295000000.0,1.0,348399594,348399594,,5.135,6811000000,146000000,86000000.0,451000000,19.549,748000000
92,PPG,ARQ,1998-09-30,1998-11-05,1998-09-30,2021-10-21,-145000000,7133000000,,2716000000,4417000000,,8.243,-47000000.0,264000000,264000000,1082000000.0,248000000.0,1.775,1.413,1538000000,335000000,1203000000,1538000000,0,0.0,0,0.023,0.18,399000000.0,399000000.0,0.221,399000000.0,399000000.0,372000000.0,0.7,0.695,0.7,2921000000,,2921000000,12259707274,9.0,7.014,206000000.0,0.581,1.0,722000000.0,0.4,0,27000000.0,6877000000,,870000000,241000000,0,241000000,4126000000,1530000000,2596000000,10985707274,113000000.0,80000000.0,-3000000.0,-133000000.0,-64000000.0,-189000000.0,49000000.0,12000000.0,253000000.0,0.0,248000000.0,248000000.0,248000000.0,0.0,0.0,0.137,318000000.0,404000000.0,1164000000,0.257,3.761,13.767,13.778,2806000000,0.0,31.0,1.452,1.452,1354000000,5692000000,1804000000.0,1804000000.0,68000000.0,,,,,0.0,282000000.0,1.0,354377654,354377654,,5.091,7133000000,0,124000000.0,460000000,20.128,1186000000
93,PPG,ARQ,1998-06-30,1998-08-04,1998-06-30,2021-10-21,-171000000,7224000000,,2811000000,4413000000,,7.636,-105000000.0,151000000,151000000,1186000000.0,199000000.0,1.569,1.641,1735000000,512000000,1223000000,1735000000,0,0.0,0,0.022,0.18,357000000.0,357000000.0,0.178,357000000.0,357000000.0,329000000.0,0.565,0.555,0.565,2703000000,,2703000000,12546819815,10.0,7.59,138000000.0,0.39,1.0,818000000.0,0.408,0,28000000.0,7016000000,,902000000,245000000,0,245000000,4435000000,1792000000,2643000000,10962819815,10000000.0,0.0,-26000000.0,-25000000.0,-64000000.0,-134000000.0,-97000000.0,2000000.0,243000000.0,-2000000.0,199000000.0,199000000.0,199000000.0,0.0,0.0,0.099,480000000.0,338000000.0,1245000000,0.319,4.056,15.205,15.256,2889000000,0.0,30.97,1.447,1.447,1509000000,5508000000,2004000000.0,2004000000.0,67000000.0,,,,,0.0,293000000.0,1.0,353981912,353981912,,5.661,7224000000,0,130000000.0,480000000,20.408,1019000000
94,PPG,ARQ,1998-03-31,1998-04-28,1998-03-31,2021-10-21,-172000000,7106000000,,2729000000,4377000000,,7.349,-180000000.0,141000000,141000000,1145000000.0,192000000.0,1.501,1.692,1752000000,522000000,1230000000,1752000000,0,0.0,0,0.019,0.0,348000000.0,348000000.0,0.182,348000000.0,348000000.0,318000000.0,0.54,0.535,0.54,2607000000,,2607000000,14138212681,11.0,8.426,39000000.0,0.11,1.0,768000000.0,0.401,0,30000000.0,6899000000,,898000000,249000000,0,249000000,4412000000,1818000000,2594000000,12527212681,12000000.0,0.0,-41000000.0,59000000.0,-60000000.0,-29000000.0,-178000000.0,1000000.0,219000000.0,0.0,192000000.0,192000000.0,192000000.0,0.0,0.0,0.1,437000000.0,331000000.0,1212000000,0.0,4.805,16.929,17.06,2878000000,0.0,35.315,1.667,1.667,1443000000,5371000000,1913000000.0,1913000000.0,67000000.0,,,,,0.0,263000000.0,1.0,354727812,354727812,,5.393,7106000000,0,126000000.0,493000000,20.032,911000000
95,PPG,ARQ,1997-12-31,1998-02-24,1997-12-31,2021-10-21,-161000000,6868000000,,2584000000,4284000000,,7.056,-131000000.0,129000000,129000000,1085000000.0,159000000.0,1.555,1.705,1701000000,444000000,1257000000,1701000000,0,373000000.0,0,0.021,0.34,271000000.0,644000000.0,0.349,644000000.0,271000000.0,242000000.0,0.445,,0.445,2509000000,,2509000000,12872994695,10.0,7.912,152000000.0,0.427,1.0,761000000.0,0.412,0,29000000.0,6778000000,,863000000,219000000,0,219000000,4277000000,1662000000,2615000000,11300994695,39000000.0,-192000000.0,-35000000.0,113000000.0,-60000000.0,31000000.0,-273000000.0,-22000000.0,283000000.0,-2000000.0,159000000.0,159000000.0,159000000.0,0.0,0.0,0.086,408000000.0,353000000.0,1210000000,0.764,4.504,15.828,16.01,2855000000,0.0,31.78,1.532,1.532,1353000000,5239000000,1846000000.0,1846000000.0,68000000.0,,,,,0.0,280000000.0,1.0,355600840,355600840,,5.191,6868000000,118000000,83000000.0,414000000,19.314,922000000
